Data from 1988.PennyLincolnUp.Lamp.En5.5.200Scan.071819.P2_HRD10591_17-19-09-972.txt Node
Date: Thu Jul 18 17:19:09 EDT 2019
User: cochatt
Spectrometer: HR+D1059
Trigger mode: 1
Integration Time (sec): 1.000000E-1
Scans to average: 1
Electric dark correction enabled: true
Nonlinearity correction enabled: false
Boxcar width: 0
XAxis mode: Wavelengths
Number of Pixels in Spectrum: 2048
>>>>>Begin Spectral Data<<<<<
223.165	-12
223.4	-12
223.635	-12
223.869	-12
224.104	-15
224.338	-9
224.573	-18
224.808	-15
225.042	-13
225.277	-7
225.511	-2
225.746	10
225.98	7
226.215	22
226.449	13
226.683	5
226.918	21
227.152	25
227.387	22
227.621	44
227.856	33
228.09	49
228.324	45
228.559	53
228.793	78
229.027	99
229.262	122
229.496	113
229.73	135
229.964	171
230.199	129
230.433	109
230.667	107
230.901	130
231.136	110
231.37	108
231.604	106
231.838	104
232.072	111
232.306	115
232.541	119
232.775	105
233.009	111
233.243	110
233.477	122
233.711	124
233.945	114
234.179	110
234.413	122
234.647	118
234.881	118
235.115	128
235.349	123
235.583	118
235.817	119
236.051	127
236.285	114
236.519	117
236.753	119
236.987	137
237.221	175
237.455	236
237.689	180
237.922	145
238.156	139
238.39	129
238.624	116
238.858	120
239.091	128
239.325	118
239.559	123
239.793	123
240.027	147
240.26	147
240.494	159
240.728	144
240.961	128
241.195	139
241.429	136
241.662	142
241.896	121
242.13	138
242.363	137
242.597	135
242.83	146
243.064	136
243.298	133
243.531	144
243.765	129
243.998	128
244.232	135
244.465	156
244.699	144
244.932	138
245.166	150
245.399	155
245.633	134
245.866	164
246.099	162
246.333	147
246.566	159
246.8	150
247.033	165
247.266	158
247.5	167
247.733	155
247.966	163
248.2	167
248.433	177
248.666	160
248.899	168
249.133	193
249.366	198
249.599	200
249.832	190
250.066	191
250.299	171
250.532	190
250.765	186
250.998	209
251.231	217
251.465	206
251.698	192
251.931	215
252.164	191
252.397	173
252.63	188
252.863	195
253.096	211
253.329	219
253.562	201
253.795	231
254.028	207
254.261	209
254.494	226
254.727	243
254.96	261
255.193	263
255.426	238
255.659	220
255.892	206
256.124	224
256.357	222
256.59	204
256.823	191
257.056	200
257.289	205
257.521	211
257.754	193
257.987	190
258.22	231
258.452	216
258.685	194
258.918	198
259.151	200
259.383	216
259.616	212
259.849	220
260.081	222
260.314	260
260.547	253
260.779	242
261.012	225
261.244	210
261.477	218
261.71	222
261.942	225
262.175	231
262.407	211
262.64	223
262.872	230
263.105	206
263.337	195
263.57	220
263.802	196
264.035	209
264.267	213
264.499	213
264.732	211
264.964	210
265.197	209
265.429	225
265.661	206
265.894	206
266.126	206
266.358	197
266.591	212
266.823	220
267.055	214
267.287	228
267.52	233
267.752	221
267.984	202
268.216	226
268.448	223
268.681	235
268.913	241
269.145	255
269.377	257
269.609	265
269.841	275
270.073	269
270.306	281
270.538	295
270.77	293
271.002	296
271.234	293
271.466	288
271.698	292
271.93	303
272.162	306
272.394	289
272.626	303
272.858	292
273.09	300
273.322	275
273.553	266
273.785	268
274.017	260
274.249	275
274.481	267
274.713	264
274.945	275
275.176	257
275.408	242
275.64	245
275.872	244
276.104	262
276.335	279
276.567	279
276.799	280
277.031	300
277.262	282
277.494	299
277.726	299
277.957	278
278.189	284
278.421	276
278.652	269
278.884	275
279.115	275
279.347	289
279.579	271
279.81	275
280.042	278
280.273	274
280.505	260
280.736	272
280.968	275
281.199	263
281.431	263
281.662	277
281.894	261
282.125	273
282.356	300
282.588	309
282.819	295
283.051	287
283.282	281
283.513	284
283.745	289
283.976	273
284.207	296
284.439	280
284.67	263
284.901	292
285.132	271
285.364	294
285.595	306
285.826	281
286.057	259
286.288	279
286.52	292
286.751	284
286.982	284
287.213	287
287.444	288
287.675	299
287.906	293
288.138	307
288.369	325
288.6	318
288.831	297
289.062	299
289.293	291
289.524	279
289.755	296
289.986	302
290.217	278
290.448	289
290.679	297
290.91	298
291.141	293
291.371	277
291.602	284
291.833	294
292.064	302
292.295	294
292.526	269
292.757	289
292.987	274
293.218	285
293.449	306
293.68	298
293.91	299
294.141	295
294.372	294
294.603	298
294.833	310
295.064	294
295.295	305
295.525	294
295.756	311
295.987	305
296.217	314
296.448	339
296.679	319
296.909	287
297.14	313
297.37	306
297.601	311
297.831	304
298.062	313
298.292	293
298.523	302
298.753	313
298.984	329
299.214	309
299.445	315
299.675	327
299.905	325
300.136	327
300.366	317
300.597	321
300.827	333
301.057	319
301.288	331
301.518	331
301.748	335
301.979	345
302.209	340
302.439	334
302.669	339
302.9	354
303.13	327
303.36	342
303.59	326
303.82	338
304.051	348
304.281	341
304.511	347
304.741	319
304.971	334
305.201	346
305.431	316
305.661	332
305.891	325
306.121	334
306.352	341
306.582	346
306.812	344
307.042	332
307.272	336
307.502	321
307.731	340
307.961	324
308.191	339
308.421	348
308.651	339
308.881	328
309.111	348
309.341	350
309.571	342
309.8	381
310.03	369
310.26	366
310.49	388
310.72	401
310.949	411
311.179	403
311.409	381
311.639	389
311.868	380
312.098	382
312.328	394
312.557	384
312.787	391
313.017	439
313.246	411
313.476	387
313.706	388
313.935	407
314.165	403
314.394	410
314.624	417
314.853	396
315.083	370
315.312	383
315.542	384
315.771	380
316.001	383
316.23	381
316.46	387
316.689	386
316.919	391
317.148	404
317.377	409
317.607	426
317.836	377
318.065	383
318.295	400
318.524	375
318.753	393
318.983	405
319.212	402
319.441	399
319.67	420
319.9	389
320.129	404
320.358	382
320.587	388
320.816	395
321.046	415
321.275	425
321.504	415
321.733	403
321.962	421
322.191	422
322.42	447
322.649	458
322.878	435
323.108	465
323.337	483
323.566	517
323.795	543
324.024	607
324.253	685
324.482	1011
324.71	1551
324.939	2281
325.168	1932
325.397	998
325.626	679
325.855	556
326.084	542
326.313	508
326.542	528
326.77	564
326.999	662
327.228	919
327.457	1398
327.686	1685
327.914	1127
328.143	737
328.372	625
328.6	600
328.829	559
329.058	591
329.287	602
329.515	544
329.744	505
329.972	497
330.201	499
330.43	515
330.658	552
330.887	603
331.115	575
331.344	541
331.572	505
331.801	497
332.03	494
332.258	485
332.486	461
332.715	460
332.943	444
333.172	455
333.4	462
333.629	474
333.857	483
334.085	489
334.314	469
334.542	466
334.771	475
334.999	471
335.227	463
335.455	462
335.684	466
335.912	467
336.14	458
336.369	462
336.597	461
336.825	467
337.053	457
337.281	460
337.51	444
337.738	446
337.966	422
338.194	451
338.422	466
338.65	453
338.878	442
339.106	437
339.334	458
339.562	418
339.79	429
340.018	429
340.246	443
340.474	441
340.702	427
340.93	462
341.158	433
341.386	429
341.614	429
341.842	422
342.07	428
342.298	435
342.526	436
342.754	424
342.981	434
343.209	418
343.437	447
343.665	442
343.893	460
344.12	459
344.348	434
344.576	441
344.804	454
345.031	440
345.259	468
345.487	459
345.714	445
345.942	440
346.17	428
346.397	428
346.625	429
346.853	440
347.08	427
347.308	413
347.535	440
347.763	473
347.99	444
348.218	433
348.445	440
348.673	434
348.9	442
349.128	438
349.355	412
349.583	412
349.81	407
350.037	430
350.265	421
350.492	417
350.72	414
350.947	426
351.174	443
351.402	433
351.629	433
351.856	438
352.083	426
352.311	454
352.538	431
352.765	443
352.992	440
353.22	443
353.447	425
353.674	435
353.901	419
354.128	439
354.355	423
354.583	409
354.81	400
355.037	401
355.264	423
355.491	393
355.718	411
355.945	385
356.172	421
356.399	399
356.626	413
356.853	391
357.08	407
357.307	415
357.534	411
357.761	405
357.988	396
358.215	401
358.441	407
358.668	413
358.895	402
359.122	411
359.349	407
359.576	429
359.802	440
360.029	466
360.256	485
360.483	462
360.709	428
360.936	447
361.163	417
361.39	423
361.616	410
361.843	418
362.07	425
362.296	418
362.523	399
362.749	423
362.976	420
363.203	423
363.429	394
363.656	413
363.882	411
364.109	398
364.335	415
364.562	412
364.788	412
365.015	417
365.241	419
365.468	408
365.694	411
365.92	423
366.147	412
366.373	420
366.599	426
366.826	403
367.052	400
367.278	413
367.505	393
367.731	413
367.957	398
368.184	414
368.41	428
368.636	421
368.862	440
369.089	407
369.315	415
369.541	414
369.767	418
369.993	421
370.219	396
370.445	425
370.672	415
370.898	415
371.124	391
371.35	410
371.576	441
371.802	395
372.028	392
372.254	418
372.48	419
372.706	399
372.932	407
373.158	414
373.384	420
373.61	427
373.835	411
374.061	418
374.287	425
374.513	425
374.739	431
374.965	436
375.191	421
375.416	426
375.642	400
375.868	412
376.094	395
376.319	427
376.545	410
376.771	413
376.997	418
377.222	399
377.448	409
377.674	405
377.899	397
378.125	386
378.35	398
378.576	386
378.802	412
379.027	380
379.253	423
379.478	394
379.704	403
379.929	411
380.155	419
380.38	406
380.606	399
380.831	427
381.057	430
381.282	412
381.507	398
381.733	414
381.958	410
382.184	429
382.409	429
382.634	435
382.86	443
383.085	424
383.31	421
383.535	437
383.761	411
383.986	415
384.211	425
384.436	438
384.662	435
384.887	444
385.112	446
385.337	445
385.562	439
385.787	447
386.013	463
386.238	466
386.463	449
386.688	465
386.913	472
387.138	433
387.363	453
387.588	454
387.813	456
388.038	453
388.263	442
388.488	463
388.713	460
388.938	444
389.163	464
389.387	470
389.612	431
389.837	433
390.062	463
390.287	467
390.512	447
390.736	454
390.961	458
391.186	447
391.411	455
391.636	457
391.86	447
392.085	464
392.31	483
392.534	477
392.759	466
392.984	476
393.208	472
393.433	460
393.658	452
393.882	470
394.107	447
394.331	465
394.556	453
394.78	449
395.005	446
395.229	464
395.454	441
395.678	462
395.903	470
396.127	500
396.352	509
396.576	489
396.801	471
397.025	472
397.249	478
397.474	491
397.698	477
397.922	484
398.147	515
398.371	525
398.595	522
398.82	516
399.044	503
399.268	540
399.492	581
399.717	597
399.941	618
400.165	609
400.389	653
400.613	597
400.837	563
401.062	541
401.286	544
401.51	540
401.734	533
401.958	530
402.182	527
402.406	562
402.63	553
402.854	523
403.078	545
403.302	537
403.526	531
403.75	550
403.974	530
404.198	541
404.422	546
404.645	545
404.869	545
405.093	578
405.317	573
405.541	602
405.765	601
405.988	564
406.212	586
406.436	599
406.66	610
406.883	585
407.107	630
407.331	663
407.555	726
407.778	710
408.002	664
408.226	622
408.449	604
408.673	615
408.896	619
409.12	663
409.344	622
409.567	563
409.791	551
410.014	542
410.238	570
410.461	526
410.685	554
410.908	554
411.132	598
411.355	618
411.578	619
411.802	548
412.025	549
412.249	538
412.472	555
412.695	542
412.919	541
413.142	521
413.365	532
413.589	538
413.812	519
414.035	518
414.258	486
414.482	507
414.705	519
414.928	491
415.151	487
415.374	489
415.597	511
415.821	501
416.044	520
416.267	516
416.49	520
416.713	498
416.936	495
417.159	513
417.382	523
417.605	527
417.828	532
418.051	527
418.274	537
418.497	517
418.72	503
418.943	504
419.166	531
419.389	567
419.611	535
419.834	525
420.057	548
420.28	537
420.503	519
420.726	503
420.948	537
421.171	589
421.394	610
421.617	556
421.839	552
422.062	541
422.285	550
422.507	606
422.73	676
422.953	661
423.175	589
423.398	551
423.621	553
423.843	557
424.066	590
424.288	584
424.511	602
424.733	654
424.956	728
425.178	689
425.401	685
425.623	693
425.846	609
426.068	595
426.291	582
426.513	561
426.735	606
426.958	598
427.18	712
427.402	831
427.625	937
427.847	794
428.069	682
428.292	585
428.514	554
428.736	548
428.958	545
429.181	521
429.403	523
429.625	534
429.847	589
430.069	661
430.292	643
430.514	542
430.736	546
430.958	523
431.18	483
431.402	495
431.624	510
431.846	511
432.068	484
432.29	519
432.512	511
432.734	511
432.956	524
433.178	523
433.4	519
433.622	510
433.844	499
434.066	506
434.287	509
434.509	491
434.731	515
434.953	543
435.175	531
435.397	572
435.618	581
435.84	605
436.062	704
436.284	780
436.505	645
436.727	570
436.949	546
437.17	528
437.392	545
437.614	534
437.835	577
438.057	691
438.278	780
438.5	775
438.721	845
438.943	790
439.165	653
439.386	609
439.608	561
439.829	571
440.05	614
440.272	625
440.493	611
440.715	581
440.936	566
441.158	521
441.379	540
441.6	559
441.822	567
442.043	609
442.264	710
442.486	745
442.707	615
442.928	580
443.149	611
443.371	610
443.592	648
443.813	753
444.034	835
444.255	677
444.476	585
444.698	594
444.919	595
445.14	663
445.361	637
445.582	619
445.803	668
446.024	781
446.245	781
446.466	731
446.687	610
446.908	564
447.129	561
447.35	545
447.571	530
447.792	513
448.013	534
448.234	569
448.455	615
448.675	689
448.896	835
449.117	708
449.338	650
449.559	782
449.779	884
450	693
450.221	589
450.442	549
450.662	540
450.883	515
451.104	526
451.324	538
451.545	511
451.766	514
451.986	485
452.207	468
452.428	463
452.648	472
452.869	456
453.089	495
453.31	499
453.53	481
453.751	478
453.971	482
454.192	489
454.412	490
454.633	475
454.853	491
455.073	449
455.294	493
455.514	568
455.734	556
455.955	479
456.175	466
456.395	468
456.616	423
456.836	469
457.056	456
457.276	426
457.497	448
457.717	442
457.937	465
458.157	468
458.377	464
458.598	492
458.818	543
459.038	622
459.258	648
459.478	550
459.698	519
459.918	507
460.138	517
460.358	526
460.578	538
460.798	506
461.018	515
461.238	507
461.458	498
461.678	527
461.898	516
462.118	525
462.338	534
462.558	511
462.777	541
462.997	552
463.217	567
463.437	563
463.657	556
463.876	531
464.096	548
464.316	579
464.536	583
464.755	569
464.975	565
465.195	596
465.414	676
465.634	603
465.854	539
466.073	536
466.293	525
466.512	483
466.732	497
466.951	499
467.171	484
467.391	501
467.61	506
467.829	504
468.049	513
468.268	463
468.488	459
468.707	461
468.927	476
469.146	446
469.365	485
469.585	490
469.804	494
470.023	501
470.243	492
470.462	466
470.681	503
470.901	517
471.12	496
471.339	478
471.558	499
471.777	494
471.997	484
472.216	486
472.435	502
472.654	484
472.873	471
473.092	484
473.311	494
473.53	509
473.749	487
473.968	547
474.187	629
474.406	673
474.625	555
474.844	517
475.063	511
475.282	473
475.501	501
475.72	525
475.939	503
476.158	511
476.377	503
476.596	509
476.814	531
477.033	541
477.252	530
477.471	519
477.69	531
477.908	528
478.127	536
478.346	525
478.564	540
478.783	557
479.002	557
479.22	558
479.439	587
479.658	586
479.876	603
480.095	621
480.313	623
480.532	608
480.751	605
480.969	630
481.188	607
481.406	630
481.624	598
481.843	581
482.061	609
482.28	578
482.498	570
482.717	574
482.935	562
483.153	579
483.372	585
483.59	607
483.808	576
484.027	588
484.245	577
484.463	612
484.681	597
484.9	575
485.118	579
485.336	595
485.554	620
485.772	609
485.99	600
486.209	619
486.427	594
486.645	617
486.863	631
487.081	614
487.299	633
487.517	629
487.735	621
487.953	610
488.171	621
488.389	609
488.607	620
488.825	611
489.043	606
489.261	629
489.479	630
489.696	639
489.914	617
490.132	632
490.35	628
490.568	657
490.786	651
491.003	661
491.221	696
491.439	703
491.657	678
491.874	707
492.092	709
492.31	707
492.527	663
492.745	691
492.963	709
493.18	694
493.398	704
493.615	714
493.833	706
494.05	727
494.268	738
494.485	713
494.703	736
494.92	760
495.138	718
495.355	719
495.573	728
495.79	711
496.008	745
496.225	727
496.442	719
496.66	744
496.877	739
497.094	746
497.312	751
497.529	749
497.746	754
497.963	768
498.181	814
498.398	821
498.615	838
498.832	837
499.049	878
499.267	879
499.484	901
499.701	959
499.918	995
500.135	1027
500.352	1047
500.569	1054
500.786	1044
501.003	1041
501.22	1009
501.437	1006
501.654	955
501.871	956
502.088	905
502.305	865
502.522	849
502.739	845
502.956	797
503.172	811
503.389	778
503.606	787
503.823	776
504.04	775
504.256	742
504.473	761
504.69	775
504.907	740
505.123	751
505.34	728
505.557	731
505.773	717
505.99	724
506.207	689
506.423	671
506.64	710
506.856	684
507.073	711
507.289	699
507.506	697
507.722	680
507.939	706
508.155	713
508.372	669
508.588	700
508.805	676
509.021	661
509.238	683
509.454	698
509.67	676
509.887	689
510.103	677
510.319	693
510.536	766
510.752	1282
510.968	1054
511.184	685
511.401	641
511.617	656
511.833	646
512.049	622
512.265	621
512.481	627
512.698	619
512.914	635
513.13	635
513.346	605
513.562	663
513.778	652
513.994	647
514.21	658
514.426	699
514.642	726
514.858	737
515.074	787
515.29	884
515.506	1309
515.721	1140
515.937	807
516.153	725
516.369	671
516.585	693
516.801	685
517.016	681
517.232	651
517.448	684
517.664	670
517.879	683
518.095	713
518.311	669
518.527	667
518.742	655
518.958	680
519.173	651
519.389	648
519.605	638
519.82	649
520.036	659
520.251	687
520.467	694
520.682	689
520.898	725
521.113	743
521.329	761
521.544	829
521.76	1035
521.975	1729
522.19	1739
522.406	963
522.621	747
522.836	665
523.052	664
523.267	610
523.482	595
523.698	586
523.913	599
524.128	590
524.343	578
524.559	581
524.774	563
524.989	554
525.204	579
525.419	586
525.634	569
525.849	540
526.064	570
526.28	550
526.495	562
526.71	557
526.925	547
527.14	519
527.355	527
527.57	539
527.785	506
527.999	527
528.214	525
528.429	513
528.644	523
528.859	546
529.074	528
529.289	581
529.503	635
529.718	608
529.933	549
530.148	545
530.363	552
530.577	549
530.792	527
531.007	514
531.221	551
531.436	531
531.651	535
531.865	502
532.08	502
532.295	519
532.509	529
532.724	526
532.938	478
533.153	498
533.367	517
533.582	493
533.796	487
534.011	494
534.225	515
534.44	509
534.654	508
534.868	502
535.083	498
535.297	507
535.511	509
535.726	522
535.94	519
536.154	498
536.369	491
536.583	491
536.797	482
537.011	481
537.225	464
537.44	483
537.654	492
537.868	489
538.082	479
538.296	509
538.51	486
538.724	501
538.938	486
539.153	458
539.367	485
539.581	491
539.795	482
540.009	481
540.222	492
540.436	502
540.65	489
540.864	501
541.078	489
541.292	475
541.506	493
541.72	484
541.934	468
542.147	485
542.361	492
542.575	466
542.789	468
543.002	493
543.216	484
543.43	495
543.644	496
543.857	492
544.071	479
544.285	477
544.498	450
544.712	483
544.925	461
545.139	473
545.352	463
545.566	459
545.779	458
545.993	467
546.206	475
546.42	472
546.633	459
546.847	477
547.06	446
547.274	468
547.487	454
547.7	474
547.914	451
548.127	476
548.34	443
548.554	441
548.767	459
548.98	471
549.193	468
549.407	463
549.62	480
549.833	461
550.046	461
550.259	451
550.473	477
550.686	449
550.899	470
551.112	459
551.325	450
551.538	452
551.751	473
551.964	459
552.177	462
552.39	462
552.603	449
552.816	450
553.029	444
553.242	463
553.455	449
553.667	486
553.88	483
554.093	463
554.306	459
554.519	465
554.732	451
554.944	451
555.157	452
555.37	445
555.583	426
555.795	445
556.008	430
556.221	425
556.433	414
556.646	396
556.859	415
557.071	419
557.284	428
557.496	419
557.709	413
557.921	410
558.134	417
558.346	409
558.559	413
558.771	394
558.984	395
559.196	412
559.409	419
559.621	442
559.833	412
560.046	399
560.258	403
560.47	399
560.683	403
560.895	413
561.107	388
561.32	403
561.532	399
561.744	403
561.956	382
562.168	411
562.381	414
562.593	407
562.805	419
563.017	418
563.229	421
563.441	406
563.653	419
563.865	421
564.077	422
564.289	419
564.501	426
564.713	435
564.925	444
565.137	445
565.349	435
565.561	453
565.773	459
565.985	452
566.197	460
566.408	468
566.62	479
566.832	490
567.044	495
567.255	520
567.467	519
567.679	507
567.891	526
568.102	511
568.314	494
568.526	498
568.737	460
568.949	462
569.161	449
569.372	427
569.584	434
569.795	405
570.007	430
570.218	477
570.43	443
570.641	406
570.853	403
571.064	423
571.276	401
571.487	413
571.698	402
571.91	385
572.121	400
572.333	369
572.544	387
572.755	394
572.966	372
573.178	373
573.389	370
573.6	351
573.811	371
574.023	355
574.234	351
574.445	353
574.656	371
574.867	348
575.078	348
575.289	358
575.501	353
575.712	348
575.923	356
576.134	363
576.345	325
576.556	341
576.767	338
576.978	344
577.188	345
577.399	348
577.61	325
577.821	336
578.032	351
578.243	397
578.454	598
578.665	447
578.875	346
579.086	345
579.297	311
579.508	337
579.718	325
579.929	319
580.14	321
580.35	333
580.561	323
580.772	323
580.982	330
581.193	328
581.403	341
581.614	321
581.825	330
582.035	317
582.246	330
582.456	307
582.667	329
582.877	310
583.087	325
583.298	326
583.508	291
583.719	311
583.929	316
584.139	341
584.35	322
584.56	313
584.77	306
584.981	313
585.191	304
585.401	314
585.611	317
585.821	325
586.032	323
586.242	313
586.452	318
586.662	314
586.872	330
587.082	308
587.292	311
587.502	295
587.713	315
587.923	315
588.133	299
588.343	319
588.553	321
588.762	317
588.972	311
589.182	317
589.392	316
589.602	321
589.812	305
590.022	319
590.232	300
590.441	314
590.651	318
590.861	290
591.071	310
591.281	298
591.49	300
591.7	317
591.91	312
592.119	299
592.329	293
592.539	322
592.748	336
592.958	326
593.167	309
593.377	315
593.587	337
593.796	322
594.006	317
594.215	313
594.424	318
594.634	309
594.843	310
595.053	327
595.262	312
595.472	295
595.681	294
595.89	294
596.1	293
596.309	300
596.518	292
596.727	305
596.937	305
597.146	292
597.355	283
597.564	274
597.774	269
597.983	271
598.192	278
598.401	259
598.61	283
598.819	281
599.028	295
599.237	295
599.446	278
599.655	288
599.864	281
600.073	265
600.282	275
600.491	271
600.7	282
600.909	284
601.118	261
601.327	269
601.536	269
601.745	265
601.953	274
602.162	263
602.371	265
602.58	269
602.789	280
602.997	272
603.206	265
603.415	263
603.623	276
603.832	244
604.041	261
604.249	254
604.458	268
604.666	262
604.875	257
605.084	238
605.292	258
605.501	263
605.709	259
605.918	251
606.126	264
606.334	247
606.543	252
606.751	266
606.96	261
607.168	237
607.376	268
607.585	255
607.793	258
608.001	275
608.21	238
608.418	243
608.626	243
608.834	253
609.043	244
609.251	255
609.459	241
609.667	248
609.875	257
610.083	238
610.291	241
610.499	248
610.707	262
610.916	250
611.124	247
611.332	246
611.54	253
611.748	251
611.955	257
612.163	238
612.371	239
612.579	251
612.787	225
612.995	231
613.203	231
613.411	246
613.618	247
613.826	235
614.034	237
614.242	248
614.449	238
614.657	239
614.865	219
615.072	234
615.28	246
615.488	225
615.695	243
615.903	254
616.111	230
616.318	248
616.526	241
616.733	228
616.941	219
617.148	231
617.356	237
617.563	235
617.771	229
617.978	238
618.185	244
618.393	222
618.6	241
618.807	241
619.015	237
619.222	227
619.429	238
619.637	232
619.844	252
620.051	231
620.258	241
620.466	238
620.673	223
620.88	217
621.087	213
621.294	216
621.501	218
621.708	243
621.915	236
622.122	211
622.329	227
622.536	237
622.743	226
622.95	223
623.157	202
623.364	223
623.571	233
623.778	226
623.985	235
624.192	230
624.399	221
624.606	227
624.812	224
625.019	226
625.226	213
625.433	215
625.639	221
625.846	230
626.053	221
626.259	214
626.466	198
626.673	217
626.879	218
627.086	204
627.293	217
627.499	213
627.706	217
627.912	202
628.119	216
628.325	212
628.532	206
628.738	222
628.945	219
629.151	195
629.357	213
629.564	204
629.77	212
629.976	209
630.183	201
630.389	194
630.595	191
630.802	202
631.008	201
631.214	211
631.42	190
631.627	205
631.833	191
632.039	189
632.245	195
632.451	198
632.657	189
632.863	197
633.069	198
633.275	196
633.481	193
633.688	189
633.893	207
634.099	182
634.305	194
634.511	196
634.717	192
634.923	182
635.129	170
635.335	183
635.541	186
635.747	181
635.952	193
636.158	183
636.364	185
636.57	182
636.775	183
636.981	186
637.187	193
637.392	169
637.598	173
637.804	186
638.009	193
638.215	194
638.421	193
638.626	202
638.832	186
639.037	168
639.243	184
639.448	178
639.654	178
639.859	178
640.065	175
640.27	182
640.475	170
640.681	173
640.886	189
641.091	183
641.297	181
641.502	185
641.707	161
641.913	191
642.118	167
642.323	166
642.528	175
642.733	170
642.939	179
643.144	167
643.349	153
643.554	155
643.759	162
643.964	170
644.169	165
644.374	165
644.579	174
644.784	186
644.989	173
645.194	171
645.399	173
645.604	169
645.809	180
646.014	167
646.219	161
646.423	174
646.628	181
646.833	170
647.038	179
647.243	173
647.447	187
647.652	182
647.857	165
648.062	172
648.266	161
648.471	165
648.676	191
648.88	163
649.085	169
649.289	153
649.494	189
649.698	185
649.903	192
650.107	179
650.312	165
650.516	163
650.721	165
650.925	157
651.13	150
651.334	149
651.539	151
651.743	166
651.947	151
652.152	147
652.356	152
652.56	134
652.764	156
652.969	147
653.173	136
653.377	129
653.581	153
653.785	119
653.99	149
654.194	127
654.398	141
654.602	125
654.806	138
655.01	143
655.214	150
655.418	132
655.622	153
655.826	146
656.03	135
656.234	133
656.438	137
656.642	130
656.846	124
657.049	127
657.253	133
657.457	128
657.661	122
657.865	121
658.068	94
658.272	99
658.476	101
658.68	130
658.883	111
659.087	101
659.291	110
659.494	113
659.698	115
659.901	95
660.105	97
660.309	103
660.512	100
660.716	106
660.919	85
661.123	103
661.326	96
661.53	95
661.733	101
661.936	90
662.14	95
662.343	90
662.546	86
662.75	93
662.953	101
663.156	86
663.36	88
663.563	89
663.766	85
663.969	93
664.173	95
664.376	79
664.579	93
664.782	82
664.985	76
665.188	79
665.391	96
665.594	94
665.797	80
666	74
666.203	91
666.406	91
666.609	85
666.812	92
667.015	73
667.218	75
667.421	91
667.624	80
667.827	88
668.03	92
668.232	73
668.435	87
668.638	78
668.841	73
669.043	77
669.246	99
669.449	85
669.651	93
669.854	101
670.057	85
670.259	73
670.462	92
670.665	78
670.867	77
671.07	79
671.272	84
671.475	86
671.677	86
671.88	79
672.082	68
672.284	92
672.487	81
672.689	82
672.892	98
