Data from 1988.PennyLincolnUp.Lamp.En5.5.200Scan.071819.P2_HRD10591_17-20-07-971.txt Node
Date: Thu Jul 18 17:20:07 EDT 2019
User: cochatt
Spectrometer: HR+D1059
Trigger mode: 1
Integration Time (sec): 1.000000E-1
Scans to average: 1
Electric dark correction enabled: true
Nonlinearity correction enabled: false
Boxcar width: 0
XAxis mode: Wavelengths
Number of Pixels in Spectrum: 2048
>>>>>Begin Spectral Data<<<<<
223.165	-23
223.4	-23
223.635	-23
223.869	-7
224.104	-18
224.338	-26
224.573	-15
224.808	-22
225.042	9
225.277	8
225.511	0
225.746	-8
225.98	3
226.215	9
226.449	31
226.683	25
226.918	17
227.152	17
227.387	37
227.621	23
227.856	49
228.09	57
228.324	60
228.559	65
228.793	75
229.027	106
229.262	108
229.496	135
229.73	139
229.964	159
230.199	138
230.433	122
230.667	129
230.901	125
231.136	119
231.37	108
231.604	113
231.838	113
232.072	120
232.306	122
232.541	111
232.775	122
233.009	100
233.243	128
233.477	133
233.711	120
233.945	125
234.179	130
234.413	126
234.647	115
234.881	113
235.115	130
235.349	122
235.583	131
235.817	124
236.051	139
236.285	145
236.519	137
236.753	145
236.987	155
237.221	210
237.455	251
237.689	193
237.922	138
238.156	139
238.39	135
238.624	122
238.858	138
239.091	135
239.325	131
239.559	138
239.793	132
240.027	134
240.26	150
240.494	173
240.728	167
240.961	172
241.195	157
241.429	145
241.662	134
241.896	147
242.13	143
242.363	148
242.597	149
242.83	144
243.064	144
243.298	156
243.531	135
243.765	142
243.998	144
244.232	142
244.465	142
244.699	166
244.932	149
245.166	172
245.399	157
245.633	164
245.866	154
246.099	167
246.333	141
246.566	163
246.8	146
247.033	168
247.266	173
247.5	180
247.733	196
247.966	185
248.2	173
248.433	170
248.666	191
248.899	196
249.133	216
249.366	241
249.599	210
249.832	196
250.066	196
250.299	191
250.532	206
250.765	217
250.998	243
251.231	225
251.465	222
251.698	210
251.931	207
252.164	217
252.397	212
252.63	218
252.863	228
253.096	233
253.329	249
253.562	247
253.795	243
254.028	230
254.261	251
254.494	230
254.727	275
254.96	294
255.193	300
255.426	261
255.659	242
255.892	245
256.124	234
256.357	235
256.59	230
256.823	222
257.056	226
257.289	217
257.521	215
257.754	203
257.987	206
258.22	244
258.452	229
258.685	221
258.918	220
259.151	220
259.383	249
259.616	235
259.849	257
260.081	248
260.314	259
260.547	283
260.779	271
261.012	265
261.244	257
261.477	260
261.71	234
261.942	253
262.175	259
262.407	236
262.64	246
262.872	233
263.105	237
263.337	246
263.57	236
263.802	242
264.035	230
264.267	249
264.499	227
264.732	237
264.964	237
265.197	239
265.429	221
265.661	237
265.894	234
266.126	230
266.358	226
266.591	225
266.823	243
267.055	227
267.287	245
267.52	241
267.752	245
267.984	241
268.216	251
268.448	266
268.681	259
268.913	286
269.145	293
269.377	310
269.609	297
269.841	302
270.073	315
270.306	314
270.538	339
270.77	349
271.002	338
271.234	338
271.466	332
271.698	340
271.93	339
272.162	389
272.394	335
272.626	297
272.858	309
273.09	311
273.322	302
273.553	296
273.785	291
274.017	303
274.249	287
274.481	301
274.713	292
274.945	292
275.176	303
275.408	286
275.64	302
275.872	268
276.104	272
276.335	296
276.567	296
276.799	298
277.031	332
277.262	325
277.494	355
277.726	329
277.957	312
278.189	293
278.421	313
278.652	298
278.884	307
279.115	298
279.347	299
279.579	281
279.81	284
280.042	283
280.273	282
280.505	287
280.736	294
280.968	301
281.199	289
281.431	300
281.662	308
281.894	289
282.125	297
282.356	319
282.588	353
282.819	340
283.051	301
283.282	275
283.513	293
283.745	293
283.976	309
284.207	313
284.439	309
284.67	305
284.901	301
285.132	326
285.364	325
285.595	317
285.826	295
286.057	305
286.288	319
286.52	303
286.751	305
286.982	315
287.213	321
287.444	311
287.675	314
287.906	312
288.138	318
288.369	327
288.6	334
288.831	318
289.062	339
289.293	317
289.524	314
289.755	316
289.986	305
290.217	311
290.448	306
290.679	330
290.91	328
291.141	308
291.371	315
291.602	318
291.833	335
292.064	340
292.295	313
292.526	345
292.757	313
292.987	333
293.218	301
293.449	324
293.68	322
293.91	315
294.141	338
294.372	314
294.603	319
294.833	329
295.064	315
295.295	321
295.525	340
295.756	323
295.987	342
296.217	365
296.448	363
296.679	329
296.909	313
297.14	326
297.37	337
297.601	347
297.831	342
298.062	341
298.292	329
298.523	352
298.753	335
298.984	334
299.214	351
299.445	339
299.675	358
299.905	368
300.136	342
300.366	353
300.597	342
300.827	353
301.057	361
301.288	361
301.518	365
301.748	346
301.979	370
302.209	366
302.439	362
302.669	355
302.9	384
303.13	377
303.36	360
303.59	336
303.82	365
304.051	373
304.281	369
304.511	372
304.741	364
304.971	376
305.201	370
305.431	356
305.661	361
305.891	375
306.121	369
306.352	373
306.582	373
306.812	363
307.042	365
307.272	359
307.502	385
307.731	375
307.961	375
308.191	365
308.421	382
308.651	393
308.881	383
309.111	371
309.341	393
309.571	382
309.8	407
310.03	410
310.26	427
310.49	407
310.72	422
310.949	476
311.179	456
311.409	435
311.639	416
311.868	417
312.098	424
312.328	444
312.557	447
312.787	466
313.017	461
313.246	454
313.476	435
313.706	416
313.935	413
314.165	446
314.394	459
314.624	453
314.853	425
315.083	455
315.312	441
315.542	436
315.771	405
316.001	402
316.23	411
316.46	425
316.689	427
316.919	431
317.148	439
317.377	450
317.607	445
317.836	452
318.065	414
318.295	428
318.524	412
318.753	447
318.983	431
319.212	435
319.441	452
319.67	447
319.9	434
320.129	430
320.358	423
320.587	439
320.816	441
321.046	466
321.275	468
321.504	451
321.733	460
321.962	466
322.191	477
322.42	486
322.649	508
322.878	493
323.108	539
323.337	559
323.566	569
323.795	605
324.024	667
324.253	798
324.482	1092
324.71	1761
324.939	2588
325.168	2261
325.397	1141
325.626	771
325.855	626
326.084	577
326.313	584
326.542	598
326.77	629
326.999	722
327.228	1021
327.457	1606
327.686	1972
327.914	1249
328.143	805
328.372	701
328.6	665
328.829	628
329.058	649
329.287	667
329.515	614
329.744	587
329.972	572
330.201	573
330.43	589
330.658	630
330.887	683
331.115	668
331.344	582
331.572	565
331.801	542
332.03	553
332.258	541
332.486	511
332.715	499
332.943	516
333.172	526
333.4	517
333.629	547
333.857	525
334.085	534
334.314	545
334.542	539
334.771	537
334.999	519
335.227	544
335.455	527
335.684	538
335.912	527
336.14	499
336.369	522
336.597	532
336.825	520
337.053	518
337.281	503
337.51	475
337.738	493
337.966	507
338.194	515
338.422	521
338.65	493
338.878	509
339.106	484
339.334	482
339.562	485
339.79	490
340.018	491
340.246	498
340.474	492
340.702	491
340.93	491
341.158	490
341.386	486
341.614	499
341.842	487
342.07	506
342.298	495
342.526	497
342.754	478
342.981	483
343.209	481
343.437	488
343.665	497
343.893	499
344.12	514
344.348	503
344.576	526
344.804	525
345.031	520
345.259	533
345.487	527
345.714	493
345.942	506
346.17	494
346.397	489
346.625	490
346.853	501
347.08	483
347.308	483
347.535	484
347.763	515
347.99	503
348.218	497
348.445	513
348.673	515
348.9	486
349.128	472
349.355	470
349.583	480
349.81	472
350.037	472
350.265	473
350.492	471
350.72	480
350.947	501
351.174	494
351.402	489
351.629	500
351.856	473
352.083	502
352.311	518
352.538	493
352.765	515
352.992	512
353.22	474
353.447	504
353.674	485
353.901	489
354.128	464
354.355	460
354.583	445
354.81	480
355.037	460
355.264	461
355.491	470
355.718	452
355.945	447
356.172	439
356.399	423
356.626	441
356.853	445
357.08	448
357.307	465
357.534	468
357.761	461
357.988	487
358.215	445
358.441	462
358.668	466
358.895	473
359.122	473
359.349	471
359.576	503
359.802	508
360.029	539
360.256	551
360.483	526
360.709	505
360.936	463
361.163	482
361.39	483
361.616	517
361.843	493
362.07	488
362.296	484
362.523	477
362.749	479
362.976	469
363.203	461
363.429	476
363.656	461
363.882	490
364.109	463
364.335	462
364.562	475
364.788	470
365.015	480
365.241	469
365.468	455
365.694	493
365.92	491
366.147	464
366.373	476
366.599	492
366.826	464
367.052	474
367.278	483
367.505	462
367.731	464
367.957	462
368.184	479
368.41	475
368.636	491
368.862	493
369.089	474
369.315	463
369.541	479
369.767	479
369.993	466
370.219	452
370.445	448
370.672	453
370.898	459
371.124	487
371.35	466
371.576	477
371.802	489
372.028	471
372.254	476
372.48	481
372.706	474
372.932	471
373.158	488
373.384	487
373.61	477
373.835	487
374.061	468
374.287	466
374.513	450
374.739	483
374.965	462
375.191	472
375.416	485
375.642	483
375.868	501
376.094	487
376.319	469
376.545	466
376.771	468
376.997	461
377.222	464
377.448	485
377.674	443
377.899	471
378.125	439
378.35	462
378.576	461
378.802	444
379.027	460
379.253	484
379.478	456
379.704	453
379.929	454
380.155	467
380.38	463
380.606	478
380.831	482
381.057	459
381.282	472
381.507	463
381.733	467
381.958	487
382.184	473
382.409	499
382.634	482
382.86	467
383.085	472
383.31	482
383.535	486
383.761	476
383.986	491
384.211	492
384.436	497
384.662	513
384.887	509
385.112	506
385.337	494
385.562	494
385.787	511
386.013	535
386.238	506
386.463	543
386.688	533
386.913	534
387.138	531
387.363	525
387.588	515
387.813	524
388.038	523
388.263	519
388.488	529
388.713	538
388.938	536
389.163	515
389.387	540
389.612	523
389.837	528
390.062	525
390.287	531
390.512	525
390.736	528
390.961	499
391.186	528
391.411	525
391.636	526
391.86	536
392.085	529
392.31	526
392.534	547
392.759	529
392.984	544
393.208	525
393.433	546
393.658	551
393.882	513
394.107	524
394.331	521
394.556	542
394.78	511
395.005	539
395.229	542
395.454	553
395.678	553
395.903	564
396.127	588
396.352	606
396.576	580
396.801	551
397.025	542
397.249	567
397.474	580
397.698	566
397.922	577
398.147	574
398.371	613
398.595	574
398.82	572
399.044	600
399.268	627
399.492	668
399.717	708
399.941	745
400.165	760
400.389	752
400.613	700
400.837	654
401.062	633
401.286	626
401.51	620
401.734	614
401.958	592
402.182	621
402.406	615
402.63	604
402.854	640
403.078	611
403.302	615
403.526	621
403.75	638
403.974	646
404.198	636
404.422	625
404.645	647
404.869	613
405.093	661
405.317	693
405.541	711
405.765	682
405.988	647
406.212	675
406.436	724
406.66	703
406.883	687
407.107	738
407.331	781
407.555	875
407.778	839
408.002	783
408.226	712
408.449	715
408.673	701
408.896	724
409.12	756
409.344	728
409.567	693
409.791	667
410.014	621
410.238	654
410.461	636
410.685	646
410.908	660
411.132	707
411.355	735
411.578	725
411.802	653
412.025	642
412.249	635
412.472	650
412.695	639
412.919	643
413.142	622
413.365	601
413.589	595
413.812	602
414.035	615
414.258	625
414.482	601
414.705	597
414.928	596
415.151	618
415.374	595
415.597	617
415.821	594
416.044	607
416.267	588
416.49	579
416.713	592
416.936	595
417.159	622
417.382	589
417.605	588
417.828	627
418.051	617
418.274	594
418.497	591
418.72	587
418.943	606
419.166	620
419.389	662
419.611	641
419.834	609
420.057	647
420.28	621
420.503	599
420.726	607
420.948	628
421.171	667
421.394	731
421.617	660
421.839	621
422.062	639
422.285	659
422.507	723
422.73	804
422.953	817
423.175	681
423.398	678
423.621	679
423.843	671
424.066	692
424.288	669
424.511	704
424.733	765
424.956	877
425.178	837
425.401	837
425.623	857
425.846	742
426.068	684
426.291	698
426.513	687
426.735	691
426.958	740
427.18	840
427.402	984
427.625	1089
427.847	969
428.069	803
428.292	710
428.514	675
428.736	634
428.958	655
429.181	634
429.403	634
429.625	610
429.847	703
430.069	741
430.292	719
430.514	646
430.736	612
430.958	622
431.18	596
431.402	613
431.624	572
431.846	564
432.068	561
432.29	627
432.512	605
432.734	589
432.956	598
433.178	593
433.4	623
433.622	588
433.844	613
434.066	597
434.287	577
434.509	611
434.731	610
434.953	627
435.175	633
435.397	651
435.618	668
435.84	725
436.062	850
436.284	917
436.505	767
436.727	698
436.949	662
437.17	633
437.392	631
437.614	644
437.835	709
438.057	775
438.278	926
438.5	917
438.721	1013
438.943	970
439.165	766
439.386	697
439.608	665
439.829	679
440.05	730
440.272	765
440.493	739
440.715	670
440.936	658
441.158	617
441.379	634
441.6	679
441.822	667
442.043	716
442.264	813
442.486	867
442.707	707
442.928	707
443.149	697
443.371	718
443.592	766
443.813	889
444.034	956
444.255	799
444.476	712
444.698	689
444.919	675
445.14	808
445.361	731
445.582	729
445.803	804
446.024	917
446.245	929
446.466	853
446.687	737
446.908	689
447.129	640
447.35	634
447.571	652
447.792	614
448.013	638
448.234	660
448.455	689
448.675	855
448.896	1009
449.117	831
449.338	806
449.559	907
449.779	1025
450	837
450.221	701
450.442	625
450.662	622
450.883	631
451.104	643
451.324	616
451.545	597
451.766	590
451.986	552
452.207	552
452.428	551
452.648	549
452.869	556
453.089	558
453.31	577
453.53	561
453.751	546
453.971	572
454.192	610
454.412	571
454.633	546
454.853	542
455.073	534
455.294	603
455.514	668
455.734	645
455.955	591
456.175	555
456.395	517
456.616	531
456.836	541
457.056	527
457.276	520
457.497	527
457.717	533
457.937	530
458.157	555
458.377	555
458.598	589
458.818	655
459.038	729
459.258	760
459.478	635
459.698	616
459.918	603
460.138	608
460.358	597
460.578	567
460.798	607
461.018	612
461.238	635
461.458	625
461.678	594
461.898	623
462.118	617
462.338	630
462.558	633
462.777	633
462.997	656
463.217	666
463.437	677
463.657	667
463.876	636
464.096	661
464.316	663
464.536	639
464.755	650
464.975	646
465.195	698
465.414	765
465.634	676
465.854	634
466.073	601
466.293	607
466.512	601
466.732	587
466.951	572
467.171	577
467.391	586
467.61	590
467.829	589
468.049	573
468.268	584
468.488	565
468.707	554
468.927	557
469.146	534
469.365	555
469.585	558
469.804	561
470.023	573
470.243	601
470.462	594
470.681	630
470.901	630
471.12	589
471.339	595
471.558	607
471.777	583
471.997	580
472.216	570
472.435	584
472.654	587
472.873	571
473.092	570
473.311	568
473.53	551
473.749	575
473.968	647
474.187	753
474.406	788
474.625	676
474.844	615
475.063	597
475.282	601
475.501	603
475.72	600
475.939	595
476.158	605
476.377	602
476.596	591
476.814	597
477.033	622
477.252	591
477.471	623
477.69	661
477.908	643
478.127	649
478.346	656
478.564	650
478.783	649
479.002	671
479.22	673
479.439	667
479.658	718
479.876	706
480.095	707
480.313	747
480.532	713
480.751	728
480.969	716
481.188	746
481.406	726
481.624	696
481.843	716
482.061	711
482.28	699
482.498	689
482.717	643
482.935	678
483.153	681
483.372	677
483.59	681
483.808	705
484.027	670
484.245	697
484.463	696
484.681	701
484.9	720
485.118	707
485.336	716
485.554	709
485.772	724
485.99	682
486.209	700
486.427	731
486.645	713
486.863	749
487.081	749
487.299	729
487.517	731
487.735	728
487.953	734
488.171	725
488.389	748
488.607	729
488.825	740
489.043	737
489.261	753
489.479	743
489.696	753
489.914	751
490.132	739
490.35	758
490.568	777
490.786	761
491.003	775
491.221	791
491.439	781
491.657	801
491.874	840
492.092	829
492.31	839
492.527	814
492.745	845
492.963	853
493.18	846
493.398	844
493.615	868
493.833	892
494.05	843
494.268	827
494.485	871
494.703	834
494.92	853
495.138	861
495.355	851
495.573	874
495.79	901
496.008	885
496.225	872
496.442	884
496.66	869
496.877	869
497.094	886
497.312	899
497.529	934
497.746	903
497.963	928
498.181	961
498.398	998
498.615	977
498.832	1036
499.049	1045
499.267	1077
499.484	1095
499.701	1106
499.918	1153
500.135	1199
500.352	1266
500.569	1291
500.786	1308
501.003	1246
501.22	1234
501.437	1185
501.654	1147
501.871	1137
502.088	1091
502.305	1061
502.522	983
502.739	1019
502.956	984
503.172	959
503.389	942
503.606	927
503.823	937
504.04	939
504.256	913
504.473	905
504.69	894
504.907	889
505.123	876
505.34	871
505.557	843
505.773	837
505.99	829
506.207	828
506.423	842
506.64	842
506.856	820
507.073	833
507.289	810
507.506	827
507.722	830
507.939	850
508.155	845
508.372	833
508.588	790
508.805	789
509.021	811
509.238	815
509.454	819
509.67	821
509.887	807
510.103	838
510.319	811
510.536	924
510.752	1470
510.968	1187
511.184	830
511.401	779
511.617	792
511.833	758
512.049	766
512.265	742
512.481	748
512.698	733
512.914	765
513.13	745
513.346	744
513.562	767
513.778	763
513.994	762
514.21	757
514.426	785
514.642	862
514.858	909
515.074	933
515.29	1031
515.506	1468
515.721	1276
515.937	889
516.153	851
516.369	823
516.585	802
516.801	795
517.016	782
517.232	787
517.448	803
517.664	819
517.879	798
518.095	818
518.311	806
518.527	779
518.742	774
518.958	756
519.173	758
519.389	778
519.605	809
519.82	769
520.036	783
520.251	791
520.467	857
520.682	830
520.898	815
521.113	876
521.329	905
521.544	983
521.76	1191
521.975	1897
522.19	1939
522.406	1107
522.621	892
522.836	791
523.052	765
523.267	732
523.482	727
523.698	703
523.913	707
524.128	697
524.343	703
524.559	667
524.774	657
524.989	669
525.204	668
525.419	676
525.634	651
525.849	622
526.064	661
526.28	641
526.495	629
526.71	641
526.925	638
527.14	639
527.355	649
527.57	601
527.785	630
527.999	613
528.214	626
528.429	641
528.644	632
528.859	612
529.074	633
529.289	649
529.503	717
529.718	733
529.933	654
530.148	639
530.363	643
530.577	606
530.792	618
531.007	622
531.221	619
531.436	574
531.651	620
531.865	593
532.08	615
532.295	589
532.509	606
532.724	605
532.938	605
533.153	587
533.367	595
533.582	605
533.796	601
534.011	635
534.225	584
534.44	580
534.654	598
534.868	610
535.083	596
535.297	571
535.511	603
535.726	605
535.94	591
536.154	607
536.369	577
536.583	573
536.797	575
537.011	570
537.225	602
537.44	602
537.654	563
537.868	563
538.082	559
538.296	571
538.51	576
538.724	564
538.938	574
539.153	582
539.367	590
539.581	586
539.795	565
540.009	563
540.222	567
540.436	579
540.65	574
540.864	571
541.078	597
541.292	577
541.506	572
541.72	561
541.934	563
542.147	574
542.361	570
542.575	554
542.789	563
543.002	551
543.216	543
543.43	561
543.644	569
543.857	567
544.071	559
544.285	569
544.498	554
544.712	558
544.925	565
545.139	550
545.352	565
545.566	547
545.779	576
545.993	556
546.206	534
546.42	562
546.633	559
546.847	569
547.06	551
547.274	553
547.487	561
547.7	544
547.914	544
548.127	526
548.34	525
548.554	530
548.767	528
548.98	529
549.193	545
549.407	554
549.62	555
549.833	549
550.046	535
550.259	539
550.473	504
550.686	536
550.899	521
551.112	545
551.325	521
551.538	527
551.751	513
551.964	508
552.177	550
552.39	527
552.603	542
552.816	552
553.029	571
553.242	547
553.455	534
553.667	573
553.88	559
554.093	551
554.306	538
554.519	544
554.732	517
554.944	526
555.157	520
555.37	526
555.583	512
555.795	503
556.008	499
556.221	501
556.433	495
556.646	511
556.859	502
557.071	471
557.284	465
557.496	500
557.709	471
557.921	477
558.134	502
558.346	490
558.559	506
558.771	473
558.984	469
559.196	480
559.409	481
559.621	463
559.833	459
560.046	478
560.258	489
560.47	481
560.683	481
560.895	482
561.107	469
561.32	466
561.532	485
561.744	471
561.956	496
562.168	459
562.381	490
562.593	472
562.805	482
563.017	468
563.229	478
563.441	501
563.653	486
563.865	481
564.077	466
564.289	487
564.501	514
564.713	481
564.925	500
565.137	523
565.349	519
565.561	525
565.773	531
565.985	565
566.197	519
566.408	554
566.62	575
566.832	591
567.044	586
567.255	586
567.467	586
567.679	634
567.891	633
568.102	623
568.314	606
568.526	602
568.737	551
568.949	555
569.161	542
569.372	520
569.584	513
569.795	520
570.007	510
570.218	553
570.43	533
570.641	500
570.853	477
571.064	473
571.276	452
571.487	484
571.698	444
571.91	455
572.121	456
572.333	425
572.544	428
572.755	421
572.966	449
573.178	437
573.389	433
573.6	429
573.811	418
574.023	386
574.234	409
574.445	429
574.656	411
574.867	419
575.078	405
575.289	413
575.501	409
575.712	414
575.923	415
576.134	407
576.345	415
576.556	411
576.767	409
576.978	411
577.188	390
577.399	403
577.61	406
577.821	423
578.032	413
578.243	443
578.454	666
578.665	535
578.875	403
579.086	383
579.297	380
579.508	401
579.718	379
579.929	359
580.14	373
580.35	376
580.561	381
580.772	381
580.982	364
581.193	373
581.403	375
581.614	375
581.825	362
582.035	366
582.246	369
582.456	355
582.667	369
582.877	373
583.087	354
583.298	353
583.508	357
583.719	354
583.929	358
584.139	366
584.35	362
584.56	357
584.77	370
584.981	361
585.191	353
585.401	364
585.611	386
585.821	358
586.032	351
586.242	366
586.452	353
586.662	371
586.872	346
587.082	361
587.292	356
587.502	357
587.713	356
587.923	359
588.133	355
588.343	346
588.553	354
588.762	360
588.972	358
589.182	361
589.392	355
589.602	358
589.812	353
590.022	359
590.232	364
590.441	358
590.651	360
590.861	364
591.071	354
591.281	364
591.49	357
591.7	357
591.91	349
592.119	371
592.329	347
592.539	366
592.748	372
592.958	369
593.167	396
593.377	377
593.587	397
593.796	365
594.006	375
594.215	369
594.424	373
594.634	371
594.843	376
595.053	366
595.262	365
595.472	353
595.681	358
595.89	365
596.1	348
596.309	345
596.518	334
596.727	346
596.937	335
597.146	340
597.355	355
597.564	337
597.774	316
597.983	317
598.192	317
598.401	303
598.61	323
598.819	326
599.028	309
599.237	324
599.446	322
599.655	325
599.864	314
600.073	298
600.282	302
600.491	323
600.7	312
600.909	330
601.118	298
601.327	312
601.536	305
601.745	312
601.953	307
602.162	308
602.371	296
602.58	300
602.789	293
602.997	314
603.206	305
603.415	322
603.623	283
603.832	300
604.041	300
604.249	285
604.458	306
604.666	310
604.875	282
605.084	286
605.292	289
605.501	287
605.709	302
605.918	308
606.126	282
606.334	292
606.543	307
606.751	290
606.96	309
607.168	300
607.376	293
607.585	293
607.793	279
608.001	292
608.21	285
608.418	313
608.626	295
608.834	291
609.043	279
609.251	277
609.459	281
609.667	270
609.875	281
610.083	301
610.291	282
610.499	272
610.707	287
610.916	292
611.124	292
611.332	289
611.54	284
611.748	307
611.955	299
612.163	282
612.371	292
612.579	269
612.787	297
612.995	285
613.203	279
613.411	267
613.618	270
613.826	275
614.034	281
614.242	275
614.449	281
614.657	258
614.865	292
615.072	264
615.28	283
615.488	263
615.695	274
615.903	272
616.111	279
616.318	285
616.526	273
616.733	291
616.941	256
617.148	269
617.356	262
617.563	271
617.771	267
617.978	262
618.185	268
618.393	260
618.6	268
618.807	275
619.015	271
619.222	263
619.429	280
619.637	269
619.844	261
620.051	260
620.258	261
620.466	258
620.673	234
620.88	266
621.087	253
621.294	282
621.501	270
621.708	255
621.915	274
622.122	257
622.329	244
622.536	249
622.743	262
622.95	245
623.157	259
623.364	249
623.571	247
623.778	252
623.985	247
624.192	243
624.399	235
624.606	255
624.812	243
625.019	238
625.226	235
625.433	227
625.639	235
625.846	231
626.053	249
626.259	243
626.466	241
626.673	230
626.879	235
627.086	236
627.293	258
627.499	226
627.706	237
627.912	242
628.119	230
628.325	236
628.532	227
628.738	222
628.945	223
629.151	242
629.357	234
629.564	231
629.77	250
629.976	230
630.183	229
630.389	243
630.595	229
630.802	199
631.008	235
631.214	223
631.42	220
631.627	225
631.833	236
632.039	216
632.245	227
632.451	214
632.657	223
632.863	207
633.069	233
633.275	216
633.481	211
633.688	202
633.893	209
634.099	220
634.305	205
634.511	214
634.717	199
634.923	207
635.129	212
635.335	207
635.541	185
635.747	194
635.952	203
636.158	205
636.364	206
636.57	219
636.775	203
636.981	217
637.187	215
637.392	209
637.598	204
637.804	203
638.009	211
638.215	195
638.421	203
638.626	198
638.832	190
639.037	187
639.243	186
639.448	181
639.654	200
639.859	179
640.065	198
640.27	195
640.475	198
640.681	206
640.886	187
641.091	205
641.297	186
641.502	181
641.707	202
641.913	207
642.118	214
642.323	195
642.528	177
642.733	190
642.939	193
643.144	191
643.349	196
643.554	202
643.759	191
643.964	174
644.169	186
644.374	189
644.579	185
644.784	189
644.989	198
645.194	186
645.399	183
645.604	183
645.809	188
646.014	188
646.219	194
646.423	175
646.628	199
646.833	196
647.038	190
647.243	189
647.447	186
647.652	191
647.857	191
648.062	188
648.266	185
648.471	174
648.676	196
648.88	178
649.085	193
649.289	187
649.494	190
649.698	203
649.903	212
650.107	181
650.312	196
650.516	164
650.721	182
650.925	158
651.13	162
651.334	165
651.539	166
651.743	185
651.947	168
652.152	180
652.356	165
652.56	151
652.764	170
652.969	150
653.173	163
653.377	159
653.581	162
653.785	158
653.99	156
654.194	147
654.398	144
654.602	156
654.806	147
655.01	159
655.214	166
655.418	132
655.622	146
655.826	143
656.03	148
656.234	139
656.438	145
656.642	151
656.846	144
657.049	155
657.253	132
657.457	133
657.661	136
657.865	120
658.068	115
658.272	119
658.476	109
658.68	102
658.883	105
659.087	109
659.291	100
659.494	107
659.698	114
659.901	97
660.105	100
660.309	102
660.512	105
660.716	92
660.919	99
661.123	110
661.326	92
661.53	105
661.733	98
661.936	84
662.14	78
662.343	85
662.546	93
662.75	94
662.953	101
663.156	93
663.36	83
663.563	102
663.766	75
663.969	77
664.173	74
664.376	83
664.579	85
664.782	83
664.985	92
665.188	81
665.391	88
665.594	79
665.797	79
666	98
666.203	77
666.406	72
666.609	84
666.812	79
667.015	91
667.218	86
667.421	76
667.624	69
667.827	86
668.03	88
668.232	87
668.435	92
668.638	85
668.841	78
669.043	90
669.246	92
669.449	73
669.651	70
669.854	75
670.057	84
670.259	81
670.462	66
670.665	81
670.867	88
671.07	83
671.272	97
671.475	86
671.677	79
671.88	90
672.082	89
672.284	87
672.487	83
672.689	85
672.892	89
