Data from 1988.PennyLincolnUp.Lamp.En5.5.200Scan.071819.P2_HRD10591_17-20-31-972.txt Node
Date: Thu Jul 18 17:20:31 EDT 2019
User: cochatt
Spectrometer: HR+D1059
Trigger mode: 1
Integration Time (sec): 1.000000E-1
Scans to average: 1
Electric dark correction enabled: true
Nonlinearity correction enabled: false
Boxcar width: 0
XAxis mode: Wavelengths
Number of Pixels in Spectrum: 2048
>>>>>Begin Spectral Data<<<<<
223.165	-21.06
223.4	-21.06
223.635	-21.06
223.869	-21.06
224.104	-10.06
224.338	-17.06
224.573	-22.06
224.808	-19.06
225.042	-1.06
225.277	-1.06
225.511	0.94
225.746	-12.06
225.98	9.94
226.215	14.94
226.449	18.94
226.683	13.94
226.918	39.94
227.152	25.94
227.387	25.94
227.621	41.94
227.856	40.94
228.09	39.94
228.324	37.94
228.559	43.94
228.793	64.94
229.027	103.94
229.262	103.94
229.496	106.94
229.73	120.94
229.964	164.94
230.199	134.94
230.433	116.94
230.667	120.94
230.901	124.94
231.136	108.94
231.37	112.94
231.604	131.94
231.838	123.94
232.072	120.94
232.306	105.94
232.541	124.94
232.775	118.94
233.009	111.94
233.243	124.94
233.477	113.94
233.711	127.94
233.945	132.94
234.179	134.94
234.413	122.94
234.647	132.94
234.881	114.94
235.115	121.94
235.349	116.94
235.583	125.94
235.817	126.94
236.051	134.94
236.285	114.94
236.519	130.94
236.753	124.94
236.987	143.94
237.221	192.94
237.455	252.94
237.689	214.94
237.922	162.94
238.156	148.94
238.39	115.94
238.624	134.94
238.858	125.94
239.091	127.94
239.325	118.94
239.559	131.94
239.793	131.94
240.027	145.94
240.26	136.94
240.494	169.94
240.728	150.94
240.961	153.94
241.195	155.94
241.429	137.94
241.662	157.94
241.896	127.94
242.13	134.94
242.363	142.94
242.597	134.94
242.83	132.94
243.064	148.94
243.298	150.94
243.531	146.94
243.765	147.94
243.998	135.94
244.232	130.94
244.465	156.94
244.699	163.94
244.932	146.94
245.166	155.94
245.399	145.94
245.633	141.94
245.866	157.94
246.099	147.94
246.333	150.94
246.566	156.94
246.8	149.94
247.033	151.94
247.266	137.94
247.5	162.94
247.733	172.94
247.966	186.94
248.2	180.94
248.433	185.94
248.666	178.94
248.899	195.94
249.133	202.94
249.366	215.94
249.599	193.94
249.832	191.94
250.066	186.94
250.299	209.94
250.532	207.94
250.765	185.94
250.998	222.94
251.231	225.94
251.465	219.94
251.698	217.94
251.931	197.94
252.164	202.94
252.397	215.94
252.63	206.94
252.863	214.94
253.096	207.94
253.329	240.94
253.562	247.94
253.795	222.94
254.028	235.94
254.261	218.94
254.494	239.94
254.727	256.94
254.96	294.94
255.193	282.94
255.426	246.94
255.659	244.94
255.892	227.94
256.124	220.94
256.357	225.94
256.59	221.94
256.823	224.94
257.056	233.94
257.289	217.94
257.521	208.94
257.754	231.94
257.987	217.94
258.22	214.94
258.452	221.94
258.685	216.94
258.918	222.94
259.151	230.94
259.383	219.94
259.616	224.94
259.849	226.94
260.081	230.94
260.314	272.94
260.547	264.94
260.779	260.94
261.012	258.94
261.244	234.94
261.477	245.94
261.71	223.94
261.942	247.94
262.175	247.94
262.407	240.94
262.64	196.94
262.872	223.94
263.105	229.94
263.337	234.94
263.57	228.94
263.802	245.94
264.035	228.94
264.267	203.94
264.499	219.94
264.732	222.94
264.964	223.94
265.197	229.94
265.429	233.94
265.661	240.94
265.894	222.94
266.126	231.94
266.358	217.94
266.591	226.94
266.823	215.94
267.055	237.94
267.287	227.94
267.52	240.94
267.752	240.94
267.984	223.94
268.216	225.94
268.448	243.94
268.681	256.94
268.913	267.94
269.145	274.94
269.377	302.94
269.609	288.94
269.841	272.94
270.073	275.94
270.306	326.94
270.538	341.94
270.77	328.94
271.002	314.94
271.234	303.94
271.466	317.94
271.698	322.94
271.93	338.94
272.162	339.94
272.394	345.94
272.626	314.94
272.858	297.94
273.09	307.94
273.322	285.94
273.553	295.94
273.785	286.94
274.017	256.94
274.249	272.94
274.481	284.94
274.713	298.94
274.945	274.94
275.176	283.94
275.408	287.94
275.64	279.94
275.872	262.94
276.104	272.94
276.335	276.94
276.567	292.94
276.799	286.94
277.031	311.94
277.262	331.94
277.494	339.94
277.726	319.94
277.957	317.94
278.189	296.94
278.421	283.94
278.652	295.94
278.884	284.94
279.115	301.94
279.347	292.94
279.579	296.94
279.81	282.94
280.042	289.94
280.273	282.94
280.505	278.94
280.736	277.94
280.968	281.94
281.199	284.94
281.431	297.94
281.662	284.94
281.894	291.94
282.125	291.94
282.356	320.94
282.588	335.94
282.819	327.94
283.051	301.94
283.282	265.94
283.513	274.94
283.745	281.94
283.976	288.94
284.207	297.94
284.439	303.94
284.67	286.94
284.901	294.94
285.132	293.94
285.364	284.94
285.595	294.94
285.826	297.94
286.057	287.94
286.288	289.94
286.52	290.94
286.751	308.94
286.982	302.94
287.213	302.94
287.444	297.94
287.675	292.94
287.906	328.94
288.138	332.94
288.369	321.94
288.6	314.94
288.831	324.94
289.062	331.94
289.293	314.94
289.524	322.94
289.755	310.94
289.986	314.94
290.217	310.94
290.448	308.94
290.679	316.94
290.91	313.94
291.141	321.94
291.371	305.94
291.602	287.94
291.833	296.94
292.064	310.94
292.295	313.94
292.526	312.94
292.757	303.94
292.987	318.94
293.218	313.94
293.449	331.94
293.68	312.94
293.91	322.94
294.141	305.94
294.372	296.94
294.603	314.94
294.833	325.94
295.064	322.94
295.295	315.94
295.525	318.94
295.756	300.94
295.987	332.94
296.217	358.94
296.448	378.94
296.679	332.94
296.909	328.94
297.14	314.94
297.37	325.94
297.601	330.94
297.831	332.94
298.062	321.94
298.292	326.94
298.523	322.94
298.753	323.94
298.984	326.94
299.214	304.94
299.445	343.94
299.675	344.94
299.905	338.94
300.136	341.94
300.366	336.94
300.597	346.94
300.827	353.94
301.057	354.94
301.288	354.94
301.518	353.94
301.748	347.94
301.979	358.94
302.209	358.94
302.439	341.94
302.669	357.94
302.9	351.94
303.13	361.94
303.36	345.94
303.59	366.94
303.82	366.94
304.051	350.94
304.281	366.94
304.511	356.94
304.741	363.94
304.971	352.94
305.201	368.94
305.431	348.94
305.661	341.94
305.891	354.94
306.121	358.94
306.352	378.94
306.582	374.94
306.812	366.94
307.042	350.94
307.272	346.94
307.502	372.94
307.731	372.94
307.961	376.94
308.191	395.94
308.421	367.94
308.651	359.94
308.881	382.94
309.111	352.94
309.341	380.94
309.571	368.94
309.8	390.94
310.03	397.94
310.26	407.94
310.49	402.94
310.72	416.94
310.949	428.94
311.179	426.94
311.409	403.94
311.639	402.94
311.868	410.94
312.098	426.94
312.328	410.94
312.557	430.94
312.787	446.94
313.017	454.94
313.246	405.94
313.476	390.94
313.706	420.94
313.935	420.94
314.165	430.94
314.394	432.94
314.624	434.94
314.853	408.94
315.083	402.94
315.312	406.94
315.542	395.94
315.771	396.94
316.001	407.94
316.23	384.94
316.46	384.94
316.689	432.94
316.919	412.94
317.148	426.94
317.377	412.94
317.607	431.94
317.836	410.94
318.065	406.94
318.295	393.94
318.524	417.94
318.753	411.94
318.983	414.94
319.212	385.94
319.441	423.94
319.67	410.94
319.9	396.94
320.129	420.94
320.358	414.94
320.587	423.94
320.816	434.94
321.046	419.94
321.275	430.94
321.504	442.94
321.733	423.94
321.962	440.94
322.191	449.94
322.42	478.94
322.649	475.94
322.878	489.94
323.108	520.94
323.337	534.94
323.566	566.94
323.795	565.94
324.024	630.94
324.253	774.94
324.482	1097.94
324.71	1714.94
324.939	2494.94
325.168	2195.94
325.397	1109.94
325.626	756.94
325.855	628.94
326.084	571.94
326.313	570.94
326.542	606.94
326.77	625.94
326.999	722.94
327.228	981.94
327.457	1542.94
327.686	1854.94
327.914	1259.94
328.143	794.94
328.372	707.94
328.6	670.94
328.829	612.94
329.058	617.94
329.287	648.94
329.515	597.94
329.744	568.94
329.972	539.94
330.201	552.94
330.43	585.94
330.658	598.94
330.887	656.94
331.115	656.94
331.344	572.94
331.572	537.94
331.801	543.94
332.03	532.94
332.258	539.94
332.486	510.94
332.715	502.94
332.943	504.94
333.172	520.94
333.4	515.94
333.629	516.94
333.857	512.94
334.085	528.94
334.314	507.94
334.542	513.94
334.771	516.94
334.999	512.94
335.227	499.94
335.455	510.94
335.684	518.94
335.912	495.94
336.14	488.94
336.369	501.94
336.597	497.94
336.825	494.94
337.053	482.94
337.281	496.94
337.51	497.94
337.738	489.94
337.966	485.94
338.194	504.94
338.422	514.94
338.65	479.94
338.878	490.94
339.106	481.94
339.334	497.94
339.562	474.94
339.79	466.94
340.018	463.94
340.246	463.94
340.474	478.94
340.702	484.94
340.93	488.94
341.158	476.94
341.386	473.94
341.614	516.94
341.842	464.94
342.07	481.94
342.298	472.94
342.526	443.94
342.754	467.94
342.981	464.94
343.209	449.94
343.437	471.94
343.665	476.94
343.893	492.94
344.12	487.94
344.348	496.94
344.576	491.94
344.804	490.94
345.031	494.94
345.259	528.94
345.487	517.94
345.714	504.94
345.942	484.94
346.17	470.94
346.397	467.94
346.625	464.94
346.853	453.94
347.08	452.94
347.308	470.94
347.535	490.94
347.763	499.94
347.99	494.94
348.218	458.94
348.445	470.94
348.673	462.94
348.9	474.94
349.128	454.94
349.355	455.94
349.583	464.94
349.81	430.94
350.037	434.94
350.265	459.94
350.492	447.94
350.72	471.94
350.947	464.94
351.174	469.94
351.402	490.94
351.629	482.94
351.856	474.94
352.083	461.94
352.311	497.94
352.538	500.94
352.765	501.94
352.992	470.94
353.22	467.94
353.447	460.94
353.674	474.94
353.901	435.94
354.128	462.94
354.355	446.94
354.583	442.94
354.81	438.94
355.037	439.94
355.264	442.94
355.491	459.94
355.718	459.94
355.945	444.94
356.172	421.94
356.399	419.94
356.626	440.94
356.853	450.94
357.08	439.94
357.307	435.94
357.534	414.94
357.761	426.94
357.988	437.94
358.215	420.94
358.441	422.94
358.668	425.94
358.895	458.94
359.122	457.94
359.349	459.94
359.576	465.94
359.802	505.94
360.029	526.94
360.256	527.94
360.483	540.94
360.709	490.94
360.936	480.94
361.163	476.94
361.39	479.94
361.616	489.94
361.843	482.94
362.07	470.94
362.296	473.94
362.523	462.94
362.749	484.94
362.976	451.94
363.203	464.94
363.429	448.94
363.656	465.94
363.882	452.94
364.109	454.94
364.335	435.94
364.562	447.94
364.788	442.94
365.015	440.94
365.241	471.94
365.468	473.94
365.694	475.94
365.92	468.94
366.147	470.94
366.373	445.94
366.599	460.94
366.826	438.94
367.052	452.94
367.278	440.94
367.505	466.94
367.731	466.94
367.957	471.94
368.184	449.94
368.41	446.94
368.636	458.94
368.862	460.94
369.089	474.94
369.315	466.94
369.541	460.94
369.767	459.94
369.993	451.94
370.219	452.94
370.445	452.94
370.672	454.94
370.898	466.94
371.124	441.94
371.35	470.94
371.576	450.94
371.802	452.94
372.028	442.94
372.254	431.94
372.48	444.94
372.706	452.94
372.932	477.94
373.158	459.94
373.384	463.94
373.61	447.94
373.835	460.94
374.061	454.94
374.287	481.94
374.513	457.94
374.739	492.94
374.965	481.94
375.191	467.94
375.416	469.94
375.642	456.94
375.868	471.94
376.094	459.94
376.319	474.94
376.545	438.94
376.771	453.94
376.997	458.94
377.222	458.94
377.448	443.94
377.674	441.94
377.899	447.94
378.125	464.94
378.35	443.94
378.576	456.94
378.802	440.94
379.027	436.94
379.253	452.94
379.478	442.94
379.704	445.94
379.929	481.94
380.155	451.94
380.38	444.94
380.606	435.94
380.831	449.94
381.057	473.94
381.282	452.94
381.507	454.94
381.733	460.94
381.958	457.94
382.184	436.94
382.409	482.94
382.634	493.94
382.86	473.94
383.085	456.94
383.31	478.94
383.535	480.94
383.761	471.94
383.986	481.94
384.211	486.94
384.436	470.94
384.662	483.94
384.887	488.94
385.112	504.94
385.337	503.94
385.562	479.94
385.787	515.94
386.013	500.94
386.238	501.94
386.463	516.94
386.688	517.94
386.913	510.94
387.138	523.94
387.363	502.94
387.588	484.94
387.813	494.94
388.038	508.94
388.263	504.94
388.488	515.94
388.713	491.94
388.938	516.94
389.163	510.94
389.387	478.94
389.612	507.94
389.837	505.94
390.062	495.94
390.287	523.94
390.512	497.94
390.736	488.94
390.961	525.94
391.186	508.94
391.411	496.94
391.636	492.94
391.86	519.94
392.085	530.94
392.31	516.94
392.534	531.94
392.759	505.94
392.984	517.94
393.208	537.94
393.433	500.94
393.658	520.94
393.882	514.94
394.107	502.94
394.331	516.94
394.556	505.94
394.78	500.94
395.005	517.94
395.229	522.94
395.454	519.94
395.678	530.94
395.903	538.94
396.127	567.94
396.352	585.94
396.576	540.94
396.801	532.94
397.025	524.94
397.249	546.94
397.474	560.94
397.698	560.94
397.922	577.94
398.147	561.94
398.371	574.94
398.595	581.94
398.82	572.94
399.044	581.94
399.268	590.94
399.492	646.94
399.717	658.94
399.941	716.94
400.165	727.94
400.389	727.94
400.613	668.94
400.837	640.94
401.062	636.94
401.286	614.94
401.51	611.94
401.734	578.94
401.958	598.94
402.182	598.94
402.406	612.94
402.63	613.94
402.854	607.94
403.078	603.94
403.302	620.94
403.526	611.94
403.75	599.94
403.974	604.94
404.198	596.94
404.422	625.94
404.645	634.94
404.869	602.94
405.093	587.94
405.317	646.94
405.541	704.94
405.765	683.94
405.988	630.94
406.212	635.94
406.436	660.94
406.66	694.94
406.883	651.94
407.107	708.94
407.331	718.94
407.555	788.94
407.778	806.94
408.002	758.94
408.226	708.94
408.449	681.94
408.673	702.94
408.896	700.94
409.12	768.94
409.344	705.94
409.567	656.94
409.791	636.94
410.014	616.94
410.238	633.94
410.461	617.94
410.685	624.94
410.908	642.94
411.132	669.94
411.355	695.94
411.578	688.94
411.802	621.94
412.025	635.94
412.249	614.94
412.472	631.94
412.695	670.94
412.919	635.94
413.142	610.94
413.365	593.94
413.589	605.94
413.812	570.94
414.035	598.94
414.258	575.94
414.482	565.94
414.705	565.94
414.928	585.94
415.151	554.94
415.374	564.94
415.597	578.94
415.821	564.94
416.044	574.94
416.267	575.94
416.49	596.94
416.713	568.94
416.936	557.94
417.159	566.94
417.382	596.94
417.605	582.94
417.828	573.94
418.051	594.94
418.274	602.94
418.497	594.94
418.72	578.94
418.943	564.94
419.166	609.94
419.389	635.94
419.611	637.94
419.834	617.94
420.057	629.94
420.28	602.94
420.503	598.94
420.726	593.94
420.948	627.94
421.171	651.94
421.394	682.94
421.617	630.94
421.839	597.94
422.062	600.94
422.285	619.94
422.507	676.94
422.73	780.94
422.953	752.94
423.175	676.94
423.398	643.94
423.621	644.94
423.843	664.94
424.066	666.94
424.288	632.94
424.511	676.94
424.733	706.94
424.956	827.94
425.178	781.94
425.401	802.94
425.623	821.94
425.846	720.94
426.068	674.94
426.291	676.94
426.513	642.94
426.735	655.94
426.958	705.94
427.18	790.94
427.402	936.94
427.625	1078.94
427.847	908.94
428.069	783.94
428.292	702.94
428.514	646.94
428.736	612.94
428.958	602.94
429.181	626.94
429.403	601.94
429.625	604.94
429.847	651.94
430.069	727.94
430.292	730.94
430.514	633.94
430.736	610.94
430.958	608.94
431.18	562.94
431.402	564.94
431.624	570.94
431.846	550.94
432.068	571.94
432.29	554.94
432.512	569.94
432.734	595.94
432.956	582.94
433.178	595.94
433.4	612.94
433.622	578.94
433.844	567.94
434.066	576.94
434.287	579.94
434.509	566.94
434.731	598.94
434.953	624.94
435.175	627.94
435.397	647.94
435.618	634.94
435.84	704.94
436.062	820.94
436.284	917.94
436.505	758.94
436.727	667.94
436.949	649.94
437.17	608.94
437.392	599.94
437.614	627.94
437.835	664.94
438.057	798.94
438.278	907.94
438.5	896.94
438.721	982.94
438.943	944.94
439.165	718.94
439.386	681.94
439.608	647.94
439.829	648.94
440.05	672.94
440.272	723.94
440.493	706.94
440.715	647.94
440.936	643.94
441.158	634.94
441.379	627.94
441.6	638.94
441.822	642.94
442.043	708.94
442.264	830.94
442.486	847.94
442.707	718.94
442.928	664.94
443.149	706.94
443.371	727.94
443.592	738.94
443.813	871.94
444.034	963.94
444.255	758.94
444.476	674.94
444.698	676.94
444.919	658.94
445.14	799.94
445.361	754.94
445.582	711.94
445.803	782.94
446.024	895.94
446.245	919.94
446.466	830.94
446.687	706.94
446.908	668.94
447.129	600.94
447.35	624.94
447.571	599.94
447.792	593.94
448.013	581.94
448.234	630.94
448.455	676.94
448.675	814.94
448.896	967.94
449.117	814.94
449.338	762.94
449.559	889.94
449.779	1041.94
450	818.94
450.221	668.94
450.442	624.94
450.662	598.94
450.883	614.94
451.104	613.94
451.324	600.94
451.545	583.94
451.766	571.94
451.986	548.94
452.207	525.94
452.428	532.94
452.648	524.94
452.869	528.94
453.089	542.94
453.31	562.94
453.53	553.94
453.751	534.94
453.971	533.94
454.192	590.94
454.412	557.94
454.633	529.94
454.853	550.94
455.073	532.94
455.294	578.94
455.514	652.94
455.734	617.94
455.955	560.94
456.175	524.94
456.395	504.94
456.616	491.94
456.836	511.94
457.056	522.94
457.276	512.94
457.497	510.94
457.717	523.94
457.937	525.94
458.157	546.94
458.377	548.94
458.598	566.94
458.818	638.94
459.038	718.94
459.258	734.94
459.478	635.94
459.698	593.94
459.918	598.94
460.138	575.94
460.358	548.94
460.578	565.94
460.798	611.94
461.018	590.94
461.238	597.94
461.458	598.94
461.678	565.94
461.898	591.94
462.118	596.94
462.338	593.94
462.558	576.94
462.777	618.94
462.997	651.94
463.217	650.94
463.437	659.94
463.657	643.94
463.876	622.94
464.096	627.94
464.316	618.94
464.536	640.94
464.755	606.94
464.975	658.94
465.195	667.94
465.414	724.94
465.634	692.94
465.854	636.94
466.073	615.94
466.293	587.94
466.512	578.94
466.732	575.94
466.951	560.94
467.171	566.94
467.391	566.94
467.61	567.94
467.829	576.94
468.049	564.94
468.268	552.94
468.488	548.94
468.707	534.94
468.927	552.94
469.146	542.94
469.365	555.94
469.585	540.94
469.804	564.94
470.023	595.94
470.243	575.94
470.462	575.94
470.681	572.94
470.901	570.94
471.12	574.94
471.339	560.94
471.558	583.94
471.777	568.94
471.997	560.94
472.216	534.94
472.435	558.94
472.654	561.94
472.873	540.94
473.092	572.94
473.311	542.94
473.53	542.94
473.749	574.94
473.968	614.94
474.187	733.94
474.406	765.94
474.625	595.94
474.844	580.94
475.063	585.94
475.282	573.94
475.501	573.94
475.72	584.94
475.939	595.94
476.158	575.94
476.377	572.94
476.596	571.94
476.814	592.94
477.033	596.94
477.252	607.94
477.471	617.94
477.69	595.94
477.908	602.94
478.127	627.94
478.346	624.94
478.564	612.94
478.783	625.94
479.002	651.94
479.22	638.94
479.439	678.94
479.658	652.94
479.876	677.94
480.095	683.94
480.313	716.94
480.532	683.94
480.751	696.94
480.969	680.94
481.188	696.94
481.406	715.94
481.624	670.94
481.843	680.94
482.061	642.94
482.28	674.94
482.498	672.94
482.717	666.94
482.935	674.94
483.153	669.94
483.372	659.94
483.59	619.94
483.808	646.94
484.027	645.94
484.245	674.94
484.463	669.94
484.681	662.94
484.9	674.94
485.118	687.94
485.336	684.94
485.554	688.94
485.772	692.94
485.99	693.94
486.209	675.94
486.427	671.94
486.645	706.94
486.863	716.94
487.081	699.94
487.299	727.94
487.517	694.94
487.735	698.94
487.953	728.94
488.171	723.94
488.389	716.94
488.607	706.94
488.825	694.94
489.043	708.94
489.261	718.94
489.479	727.94
489.696	713.94
489.914	718.94
490.132	732.94
490.35	742.94
490.568	756.94
490.786	758.94
491.003	740.94
491.221	792.94
491.439	785.94
491.657	802.94
491.874	778.94
492.092	780.94
492.31	820.94
492.527	818.94
492.745	796.94
492.963	807.94
493.18	842.94
493.398	822.94
493.615	830.94
493.833	839.94
494.05	817.94
494.268	834.94
494.485	868.94
494.703	833.94
494.92	836.94
495.138	842.94
495.355	848.94
495.573	854.94
495.79	867.94
496.008	874.94
496.225	845.94
496.442	862.94
496.66	852.94
496.877	863.94
497.094	881.94
497.312	848.94
497.529	866.94
497.746	879.94
497.963	906.94
498.181	939.94
498.398	963.94
498.615	952.94
498.832	993.94
499.049	995.94
499.267	1015.94
499.484	1058.94
499.701	1090.94
499.918	1126.94
500.135	1153.94
500.352	1192.94
500.569	1202.94
500.786	1214.94
501.003	1195.94
501.22	1201.94
501.437	1172.94
501.654	1110.94
501.871	1072.94
502.088	1055.94
502.305	1019.94
502.522	967.94
502.739	972.94
502.956	929.94
503.172	948.94
503.389	917.94
503.606	934.94
503.823	917.94
504.04	892.94
504.256	898.94
504.473	876.94
504.69	879.94
504.907	876.94
505.123	878.94
505.34	850.94
505.557	828.94
505.773	825.94
505.99	820.94
506.207	800.94
506.423	804.94
506.64	807.94
506.856	815.94
507.073	786.94
507.289	811.94
507.506	820.94
507.722	810.94
507.939	828.94
508.155	800.94
508.372	774.94
508.588	771.94
508.805	791.94
509.021	779.94
509.238	804.94
509.454	792.94
509.67	808.94
509.887	776.94
510.103	771.94
510.319	792.94
510.536	889.94
510.752	1382.94
510.968	1179.94
511.184	810.94
511.401	771.94
511.617	751.94
511.833	739.94
512.049	742.94
512.265	741.94
512.481	719.94
512.698	718.94
512.914	712.94
513.13	739.94
513.346	717.94
513.562	729.94
513.778	728.94
513.994	725.94
514.21	774.94
514.426	772.94
514.642	833.94
514.858	838.94
515.074	870.94
515.29	1049.94
515.506	1467.94
515.721	1292.94
515.937	888.94
516.153	810.94
516.369	792.94
516.585	784.94
516.801	766.94
517.016	795.94
517.232	793.94
517.448	791.94
517.664	790.94
517.879	746.94
518.095	768.94
518.311	790.94
518.527	793.94
518.742	771.94
518.958	755.94
519.173	729.94
519.389	746.94
519.605	754.94
519.82	755.94
520.036	769.94
520.251	775.94
520.467	811.94
520.682	793.94
520.898	836.94
521.113	820.94
521.329	873.94
521.544	961.94
521.76	1180.94
521.975	1939.94
522.19	1958.94
522.406	1070.94
522.621	849.94
522.836	768.94
523.052	762.94
523.267	720.94
523.482	666.94
523.698	690.94
523.913	677.94
524.128	698.94
524.343	673.94
524.559	632.94
524.774	635.94
524.989	634.94
525.204	688.94
525.419	648.94
525.634	652.94
525.849	649.94
526.064	642.94
526.28	607.94
526.495	644.94
526.71	609.94
526.925	607.94
527.14	608.94
527.355	616.94
527.57	604.94
527.785	601.94
527.999	602.94
528.214	594.94
528.429	581.94
528.644	603.94
528.859	615.94
529.074	589.94
529.289	631.94
529.503	683.94
529.718	712.94
529.933	656.94
530.148	627.94
530.363	628.94
530.577	616.94
530.792	602.94
531.007	617.94
531.221	573.94
531.436	554.94
531.651	574.94
531.865	578.94
532.08	583.94
532.295	576.94
532.509	590.94
532.724	576.94
532.938	584.94
533.153	593.94
533.367	548.94
533.582	568.94
533.796	592.94
534.011	568.94
534.225	579.94
534.44	554.94
534.654	572.94
534.868	571.94
535.083	587.94
535.297	590.94
535.511	588.94
535.726	586.94
535.94	569.94
536.154	552.94
536.369	580.94
536.583	551.94
536.797	551.94
537.011	528.94
537.225	544.94
537.44	547.94
537.654	543.94
537.868	537.94
538.082	555.94
538.296	574.94
538.51	558.94
538.724	568.94
538.938	539.94
539.153	537.94
539.367	578.94
539.581	578.94
539.795	546.94
540.009	513.94
540.222	568.94
540.436	551.94
540.65	542.94
540.864	521.94
541.078	551.94
541.292	563.94
541.506	566.94
541.72	536.94
541.934	558.94
542.147	528.94
542.361	558.94
542.575	540.94
542.789	528.94
543.002	515.94
543.216	550.94
543.43	540.94
543.644	537.94
543.857	536.94
544.071	538.94
544.285	537.94
544.498	536.94
544.712	555.94
544.925	543.94
545.139	529.94
545.352	508.94
545.566	522.94
545.779	519.94
545.993	508.94
546.206	524.94
546.42	547.94
546.633	542.94
546.847	533.94
547.06	516.94
547.274	511.94
547.487	534.94
547.7	504.94
547.914	520.94
548.127	514.94
548.34	516.94
548.554	532.94
548.767	522.94
548.98	503.94
549.193	543.94
549.407	524.94
549.62	522.94
549.833	545.94
550.046	487.94
550.259	514.94
550.473	502.94
550.686	499.94
550.899	517.94
551.112	488.94
551.325	511.94
551.538	508.94
551.751	506.94
551.964	503.94
552.177	510.94
552.39	529.94
552.603	524.94
552.816	537.94
553.029	530.94
553.242	510.94
553.455	536.94
553.667	545.94
553.88	535.94
554.093	524.94
554.306	520.94
554.519	516.94
554.732	507.94
554.944	508.94
555.157	498.94
555.37	498.94
555.583	495.94
555.795	490.94
556.008	482.94
556.221	495.94
556.433	498.94
556.646	480.94
556.859	475.94
557.071	466.94
557.284	485.94
557.496	461.94
557.709	471.94
557.921	458.94
558.134	483.94
558.346	464.94
558.559	450.94
558.771	475.94
558.984	476.94
559.196	462.94
559.409	450.94
559.621	471.94
559.833	456.94
560.046	447.94
560.258	447.94
560.47	455.94
560.683	437.94
560.895	456.94
561.107	462.94
561.32	472.94
561.532	460.94
561.744	467.94
561.956	450.94
562.168	460.94
562.381	476.94
562.593	459.94
562.805	447.94
563.017	456.94
563.229	470.94
563.441	489.94
563.653	487.94
563.865	457.94
564.077	464.94
564.289	459.94
564.501	473.94
564.713	471.94
564.925	470.94
565.137	484.94
565.349	492.94
565.561	511.94
565.773	510.94
565.985	502.94
566.197	512.94
566.408	543.94
566.62	559.94
566.832	547.94
567.044	547.94
567.255	578.94
567.467	579.94
567.679	566.94
567.891	596.94
568.102	592.94
568.314	596.94
568.526	559.94
568.737	562.94
568.949	544.94
569.161	512.94
569.372	463.94
569.584	496.94
569.795	474.94
570.007	465.94
570.218	508.94
570.43	498.94
570.641	472.94
570.853	467.94
571.064	437.94
571.276	451.94
571.487	442.94
571.698	427.94
571.91	437.94
572.121	426.94
572.333	404.94
572.544	411.94
572.755	414.94
572.966	400.94
573.178	418.94
573.389	403.94
573.6	416.94
573.811	407.94
574.023	415.94
574.234	415.94
574.445	415.94
574.656	395.94
574.867	389.94
575.078	393.94
575.289	389.94
575.501	395.94
575.712	391.94
575.923	399.94
576.134	385.94
576.345	397.94
576.556	396.94
576.767	398.94
576.978	380.94
577.188	370.94
577.399	374.94
577.61	380.94
577.821	391.94
578.032	387.94
578.243	430.94
578.454	642.94
578.665	527.94
578.875	393.94
579.086	379.94
579.297	396.94
579.508	381.94
579.718	373.94
579.929	352.94
580.14	357.94
580.35	370.94
580.561	371.94
580.772	375.94
580.982	354.94
581.193	384.94
581.403	354.94
581.614	370.94
581.825	355.94
582.035	344.94
582.246	370.94
582.456	355.94
582.667	359.94
582.877	343.94
583.087	352.94
583.298	363.94
583.508	339.94
583.719	351.94
583.929	351.94
584.139	361.94
584.35	356.94
584.56	337.94
584.77	363.94
584.981	353.94
585.191	360.94
585.401	325.94
585.611	327.94
585.821	352.94
586.032	366.94
586.242	353.94
586.452	364.94
586.662	351.94
586.872	351.94
587.082	336.94
587.292	347.94
587.502	341.94
587.713	355.94
587.923	333.94
588.133	355.94
588.343	347.94
588.553	341.94
588.762	342.94
588.972	351.94
589.182	328.94
589.392	327.94
589.602	320.94
589.812	348.94
590.022	346.94
590.232	352.94
590.441	322.94
590.651	338.94
590.861	338.94
591.071	356.94
591.281	358.94
591.49	339.94
591.7	347.94
591.91	356.94
592.119	342.94
592.329	353.94
592.539	355.94
592.748	355.94
592.958	371.94
593.167	356.94
593.377	375.94
593.587	384.94
593.796	378.94
594.006	376.94
594.215	360.94
594.424	375.94
594.634	361.94
594.843	359.94
595.053	367.94
595.262	363.94
595.472	321.94
595.681	344.94
595.89	331.94
596.1	332.94
596.309	330.94
596.518	337.94
596.727	331.94
596.937	326.94
597.146	317.94
597.355	321.94
597.564	327.94
597.774	310.94
597.983	336.94
598.192	310.94
598.401	311.94
598.61	313.94
598.819	322.94
599.028	312.94
599.237	306.94
599.446	289.94
599.655	295.94
599.864	310.94
600.073	298.94
600.282	313.94
600.491	306.94
600.7	302.94
600.909	312.94
601.118	288.94
601.327	306.94
601.536	294.94
601.745	298.94
601.953	287.94
602.162	287.94
602.371	293.94
602.58	270.94
602.789	284.94
602.997	283.94
603.206	290.94
603.415	295.94
603.623	295.94
603.832	292.94
604.041	293.94
604.249	288.94
604.458	278.94
604.666	298.94
604.875	291.94
605.084	278.94
605.292	287.94
605.501	262.94
605.709	276.94
605.918	286.94
606.126	279.94
606.334	299.94
606.543	279.94
606.751	290.94
606.96	272.94
607.168	274.94
607.376	283.94
607.585	274.94
607.793	284.94
608.001	276.94
608.21	274.94
608.418	283.94
608.626	279.94
608.834	294.94
609.043	286.94
609.251	283.94
609.459	282.94
609.667	269.94
609.875	259.94
610.083	269.94
610.291	267.94
610.499	282.94
610.707	275.94
610.916	268.94
611.124	290.94
611.332	267.94
611.54	296.94
611.748	269.94
611.955	266.94
612.163	274.94
612.371	263.94
612.579	256.94
612.787	265.94
612.995	274.94
613.203	254.94
613.411	289.94
613.618	287.94
613.826	274.94
614.034	284.94
614.242	276.94
614.449	276.94
614.657	250.94
614.865	260.94
615.072	268.94
615.28	256.94
615.488	263.94
615.695	243.94
615.903	282.94
616.111	273.94
616.318	274.94
616.526	278.94
616.733	272.94
616.941	251.94
617.148	276.94
617.356	258.94
617.563	266.94
617.771	260.94
617.978	271.94
618.185	280.94
618.393	248.94
618.6	264.94
618.807	266.94
619.015	254.94
619.222	255.94
619.429	272.94
619.637	240.94
619.844	257.94
620.051	266.94
620.258	264.94
620.466	256.94
620.673	240.94
620.88	255.94
621.087	255.94
621.294	275.94
621.501	246.94
621.708	249.94
621.915	260.94
622.122	259.94
622.329	251.94
622.536	252.94
622.743	228.94
622.95	240.94
623.157	245.94
623.364	259.94
623.571	238.94
623.778	244.94
623.985	228.94
624.192	216.94
624.399	244.94
624.606	240.94
624.812	240.94
625.019	242.94
625.226	233.94
625.433	227.94
625.639	246.94
625.846	230.94
626.053	236.94
626.259	251.94
626.466	225.94
626.673	225.94
626.879	228.94
627.086	227.94
627.293	239.94
627.499	227.94
627.706	214.94
627.912	222.94
628.119	221.94
628.325	223.94
628.532	229.94
628.738	216.94
628.945	217.94
629.151	224.94
629.357	210.94
629.564	226.94
629.77	205.94
629.976	224.94
630.183	201.94
630.389	215.94
630.595	220.94
630.802	203.94
631.008	220.94
631.214	214.94
631.42	229.94
631.627	225.94
631.833	211.94
632.039	199.94
632.245	201.94
632.451	204.94
632.657	211.94
632.863	230.94
633.069	202.94
633.275	219.94
633.481	196.94
633.688	202.94
633.893	202.94
634.099	205.94
634.305	210.94
634.511	217.94
634.717	191.94
634.923	203.94
635.129	211.94
635.335	191.94
635.541	217.94
635.747	192.94
635.952	202.94
636.158	190.94
636.364	211.94
636.57	199.94
636.775	192.94
636.981	222.94
637.187	203.94
637.392	205.94
637.598	208.94
637.804	221.94
638.009	192.94
638.215	192.94
638.421	178.94
638.626	179.94
638.832	179.94
639.037	181.94
639.243	209.94
639.448	185.94
639.654	190.94
639.859	186.94
640.065	194.94
640.27	190.94
640.475	182.94
640.681	181.94
640.886	200.94
641.091	188.94
641.297	189.94
641.502	168.94
641.707	201.94
641.913	188.94
642.118	195.94
642.323	174.94
642.528	192.94
642.733	176.94
642.939	182.94
643.144	169.94
643.349	171.94
643.554	183.94
643.759	170.94
643.964	178.94
644.169	178.94
644.374	185.94
644.579	178.94
644.784	185.94
644.989	189.94
645.194	191.94
645.399	174.94
645.604	180.94
645.809	199.94
646.014	186.94
646.219	180.94
646.423	164.94
646.628	185.94
646.833	178.94
647.038	190.94
647.243	174.94
647.447	195.94
647.652	184.94
647.857	179.94
648.062	172.94
648.266	169.94
648.471	190.94
648.676	192.94
648.88	187.94
649.085	166.94
649.289	175.94
649.494	187.94
649.698	208.94
649.903	212.94
650.107	184.94
650.312	190.94
650.516	154.94
650.721	178.94
650.925	160.94
651.13	178.94
651.334	167.94
651.539	162.94
651.743	158.94
651.947	154.94
652.152	150.94
652.356	135.94
652.56	166.94
652.764	155.94
652.969	152.94
653.173	141.94
653.377	150.94
653.581	135.94
653.785	137.94
653.99	165.94
654.194	142.94
654.398	156.94
654.602	135.94
654.806	142.94
655.01	140.94
655.214	140.94
655.418	155.94
655.622	133.94
655.826	147.94
656.03	142.94
656.234	151.94
656.438	143.94
656.642	142.94
656.846	143.94
657.049	141.94
657.253	124.94
657.457	113.94
657.661	99.94
657.865	117.94
658.068	107.94
658.272	107.94
658.476	106.94
658.68	116.94
658.883	114.94
659.087	112.94
659.291	109.94
659.494	96.94
659.698	104.94
659.901	99.94
660.105	100.94
660.309	102.94
660.512	88.94
660.716	75.94
660.919	91.94
661.123	91.94
661.326	97.94
661.53	89.94
661.733	81.94
661.936	90.94
662.14	88.94
662.343	79.94
662.546	88.94
662.75	86.94
662.953	86.94
663.156	83.94
663.36	91.94
663.563	87.94
663.766	85.94
663.969	75.94
664.173	79.94
664.376	76.94
664.579	73.94
664.782	84.94
664.985	82.94
665.188	74.94
665.391	77.94
665.594	85.94
665.797	74.94
666	82.94
666.203	89.94
666.406	71.94
666.609	81.94
666.812	90.94
667.015	72.94
667.218	74.94
667.421	75.94
667.624	89.94
667.827	96.94
668.03	84.94
668.232	79.94
668.435	73.94
668.638	87.94
668.841	79.94
669.043	83.94
669.246	85.94
669.449	82.94
669.651	70.94
669.854	80.94
670.057	75.94
670.259	84.94
670.462	84.94
670.665	90.94
670.867	76.94
671.07	70.94
671.272	82.94
671.475	73.94
671.677	88.94
671.88	79.94
672.082	69.94
672.284	85.94
672.487	83.94
672.689	83.94
672.892	66.94
