Data from 1988.PennyLincolnUp.Lamp.En5.5.200Scan.071819.P2_HRD10591_17-20-30-972.txt Node
Date: Thu Jul 18 17:20:30 EDT 2019
User: cochatt
Spectrometer: HR+D1059
Trigger mode: 1
Integration Time (sec): 1.000000E-1
Scans to average: 1
Electric dark correction enabled: true
Nonlinearity correction enabled: false
Boxcar width: 0
XAxis mode: Wavelengths
Number of Pixels in Spectrum: 2048
>>>>>Begin Spectral Data<<<<<
223.165	-6.56
223.4	-6.56
223.635	-6.56
223.869	-23.56
224.104	-12.56
224.338	-15.56
224.573	-17.56
224.808	-11.56
225.042	4.44
225.277	4.44
225.511	-3.56
225.746	4.44
225.98	0.44
226.215	13.44
226.449	8.44
226.683	8.44
226.918	23.44
227.152	23.44
227.387	43.44
227.621	45.44
227.856	55.44
228.09	47.44
228.324	57.44
228.559	57.44
228.793	70.44
229.027	106.44
229.262	106.44
229.496	120.44
229.73	142.44
229.964	163.44
230.199	144.44
230.433	115.44
230.667	108.44
230.901	114.44
231.136	124.44
231.37	109.44
231.604	101.44
231.838	116.44
232.072	116.44
232.306	133.44
232.541	109.44
232.775	120.44
233.009	138.44
233.243	136.44
233.477	121.44
233.711	126.44
233.945	129.44
234.179	133.44
234.413	132.44
234.647	119.44
234.881	134.44
235.115	129.44
235.349	127.44
235.583	120.44
235.817	133.44
236.051	117.44
236.285	124.44
236.519	116.44
236.753	139.44
236.987	145.44
237.221	201.44
237.455	259.44
237.689	213.44
237.922	142.44
238.156	147.44
238.39	135.44
238.624	133.44
238.858	129.44
239.091	139.44
239.325	122.44
239.559	143.44
239.793	126.44
240.027	133.44
240.26	147.44
240.494	165.44
240.728	162.44
240.961	171.44
241.195	161.44
241.429	140.44
241.662	132.44
241.896	139.44
242.13	150.44
242.363	147.44
242.597	154.44
242.83	156.44
243.064	148.44
243.298	141.44
243.531	150.44
243.765	154.44
243.998	143.44
244.232	131.44
244.465	156.44
244.699	151.44
244.932	159.44
245.166	173.44
245.399	159.44
245.633	145.44
245.866	147.44
246.099	154.44
246.333	173.44
246.566	170.44
246.8	152.44
247.033	171.44
247.266	162.44
247.5	173.44
247.733	172.44
247.966	178.44
248.2	192.44
248.433	190.44
248.666	198.44
248.899	189.44
249.133	208.44
249.366	231.44
249.599	201.44
249.832	198.44
250.066	204.44
250.299	196.44
250.532	203.44
250.765	213.44
250.998	234.44
251.231	230.44
251.465	223.44
251.698	219.44
251.931	202.44
252.164	201.44
252.397	200.44
252.63	210.44
252.863	229.44
253.096	235.44
253.329	246.44
253.562	241.44
253.795	255.44
254.028	249.44
254.261	233.44
254.494	241.44
254.727	275.44
254.96	298.44
255.193	285.44
255.426	282.44
255.659	266.44
255.892	254.44
256.124	236.44
256.357	222.44
256.59	230.44
256.823	233.44
257.056	219.44
257.289	219.44
257.521	218.44
257.754	222.44
257.987	230.44
258.22	231.44
258.452	229.44
258.685	228.44
258.918	229.44
259.151	222.44
259.383	238.44
259.616	232.44
259.849	238.44
260.081	241.44
260.314	256.44
260.547	261.44
260.779	267.44
261.012	247.44
261.244	245.44
261.477	250.44
261.71	236.44
261.942	235.44
262.175	254.44
262.407	259.44
262.64	241.44
262.872	238.44
263.105	236.44
263.337	236.44
263.57	233.44
263.802	238.44
264.035	234.44
264.267	247.44
264.499	240.44
264.732	233.44
264.964	239.44
265.197	237.44
265.429	225.44
265.661	220.44
265.894	230.44
266.126	241.44
266.358	229.44
266.591	238.44
266.823	235.44
267.055	244.44
267.287	251.44
267.52	242.44
267.752	247.44
267.984	242.44
268.216	254.44
268.448	263.44
268.681	262.44
268.913	245.44
269.145	275.44
269.377	299.44
269.609	297.44
269.841	301.44
270.073	303.44
270.306	311.44
270.538	350.44
270.77	349.44
271.002	313.44
271.234	323.44
271.466	319.44
271.698	353.44
271.93	337.44
272.162	337.44
272.394	324.44
272.626	343.44
272.858	313.44
273.09	297.44
273.322	312.44
273.553	289.44
273.785	276.44
274.017	280.44
274.249	311.44
274.481	293.44
274.713	302.44
274.945	280.44
275.176	286.44
275.408	288.44
275.64	289.44
275.872	284.44
276.104	300.44
276.335	291.44
276.567	311.44
276.799	318.44
277.031	346.44
277.262	331.44
277.494	340.44
277.726	341.44
277.957	342.44
278.189	309.44
278.421	299.44
278.652	299.44
278.884	289.44
279.115	287.44
279.347	305.44
279.579	294.44
279.81	271.44
280.042	283.44
280.273	283.44
280.505	294.44
280.736	305.44
280.968	299.44
281.199	283.44
281.431	313.44
281.662	305.44
281.894	322.44
282.125	306.44
282.356	321.44
282.588	342.44
282.819	332.44
283.051	291.44
283.282	292.44
283.513	310.44
283.745	305.44
283.976	317.44
284.207	314.44
284.439	308.44
284.67	305.44
284.901	298.44
285.132	293.44
285.364	309.44
285.595	288.44
285.826	308.44
286.057	320.44
286.288	296.44
286.52	326.44
286.751	281.44
286.982	295.44
287.213	288.44
287.444	296.44
287.675	324.44
287.906	319.44
288.138	312.44
288.369	329.44
288.6	332.44
288.831	348.44
289.062	306.44
289.293	308.44
289.524	316.44
289.755	316.44
289.986	310.44
290.217	314.44
290.448	337.44
290.679	327.44
290.91	315.44
291.141	320.44
291.371	325.44
291.602	321.44
291.833	323.44
292.064	319.44
292.295	335.44
292.526	323.44
292.757	310.44
292.987	310.44
293.218	321.44
293.449	321.44
293.68	335.44
293.91	314.44
294.141	318.44
294.372	310.44
294.603	305.44
294.833	318.44
295.064	333.44
295.295	318.44
295.525	334.44
295.756	326.44
295.987	356.44
296.217	360.44
296.448	377.44
296.679	358.44
296.909	339.44
297.14	318.44
297.37	341.44
297.601	344.44
297.831	349.44
298.062	332.44
298.292	343.44
298.523	328.44
298.753	349.44
298.984	340.44
299.214	316.44
299.445	326.44
299.675	340.44
299.905	345.44
300.136	356.44
300.366	337.44
300.597	353.44
300.827	362.44
301.057	352.44
301.288	363.44
301.518	357.44
301.748	376.44
301.979	359.44
302.209	359.44
302.439	350.44
302.669	360.44
302.9	381.44
303.13	363.44
303.36	369.44
303.59	371.44
303.82	375.44
304.051	379.44
304.281	367.44
304.511	371.44
304.741	341.44
304.971	357.44
305.201	360.44
305.431	383.44
305.661	373.44
305.891	360.44
306.121	381.44
306.352	369.44
306.582	364.44
306.812	369.44
307.042	381.44
307.272	380.44
307.502	358.44
307.731	363.44
307.961	375.44
308.191	368.44
308.421	381.44
308.651	376.44
308.881	382.44
309.111	371.44
309.341	379.44
309.571	408.44
309.8	402.44
310.03	403.44
310.26	406.44
310.49	409.44
310.72	407.44
310.949	444.44
311.179	462.44
311.409	411.44
311.639	400.44
311.868	396.44
312.098	395.44
312.328	437.44
312.557	462.44
312.787	479.44
313.017	450.44
313.246	414.44
313.476	395.44
313.706	441.44
313.935	441.44
314.165	452.44
314.394	457.44
314.624	441.44
314.853	435.44
315.083	446.44
315.312	411.44
315.542	413.44
315.771	427.44
316.001	408.44
316.23	415.44
316.46	425.44
316.689	430.44
316.919	438.44
317.148	450.44
317.377	431.44
317.607	418.44
317.836	409.44
318.065	434.44
318.295	421.44
318.524	424.44
318.753	435.44
318.983	429.44
319.212	433.44
319.441	442.44
319.67	445.44
319.9	448.44
320.129	442.44
320.358	426.44
320.587	421.44
320.816	429.44
321.046	457.44
321.275	452.44
321.504	449.44
321.733	435.44
321.962	481.44
322.191	487.44
322.42	483.44
322.649	490.44
322.878	510.44
323.108	531.44
323.337	555.44
323.566	572.44
323.795	622.44
324.024	656.44
324.253	788.44
324.482	1129.44
324.71	1822.44
324.939	2663.44
325.168	2244.44
325.397	1141.44
325.626	772.44
325.855	641.44
326.084	617.44
326.313	583.44
326.542	596.44
326.77	627.44
326.999	725.44
327.228	1025.44
327.457	1567.44
327.686	1943.44
327.914	1260.44
328.143	825.44
328.372	715.44
328.6	673.44
328.829	650.44
329.058	664.44
329.287	661.44
329.515	604.44
329.744	571.44
329.972	549.44
330.201	569.44
330.43	606.44
330.658	632.44
330.887	686.44
331.115	678.44
331.344	570.44
331.572	582.44
331.801	554.44
332.03	533.44
332.258	543.44
332.486	499.44
332.715	528.44
332.943	516.44
333.172	509.44
333.4	527.44
333.629	530.44
333.857	534.44
334.085	543.44
334.314	511.44
334.542	561.44
334.771	542.44
334.999	543.44
335.227	523.44
335.455	517.44
335.684	515.44
335.912	518.44
336.14	511.44
336.369	482.44
336.597	502.44
336.825	519.44
337.053	502.44
337.281	471.44
337.51	482.44
337.738	507.44
337.966	503.44
338.194	509.44
338.422	517.44
338.65	489.44
338.878	504.44
339.106	511.44
339.334	505.44
339.562	495.44
339.79	486.44
340.018	499.44
340.246	498.44
340.474	505.44
340.702	501.44
340.93	485.44
341.158	487.44
341.386	504.44
341.614	491.44
341.842	492.44
342.07	470.44
342.298	485.44
342.526	475.44
342.754	483.44
342.981	480.44
343.209	481.44
343.437	482.44
343.665	477.44
343.893	491.44
344.12	534.44
344.348	521.44
344.576	517.44
344.804	501.44
345.031	489.44
345.259	521.44
345.487	487.44
345.714	502.44
345.942	488.44
346.17	476.44
346.397	474.44
346.625	486.44
346.853	468.44
347.08	474.44
347.308	472.44
347.535	489.44
347.763	488.44
347.99	500.44
348.218	486.44
348.445	484.44
348.673	491.44
348.9	498.44
349.128	467.44
349.355	477.44
349.583	477.44
349.81	452.44
350.037	454.44
350.265	465.44
350.492	465.44
350.72	447.44
350.947	470.44
351.174	474.44
351.402	500.44
351.629	468.44
351.856	478.44
352.083	464.44
352.311	477.44
352.538	477.44
352.765	492.44
352.992	491.44
353.22	486.44
353.447	498.44
353.674	470.44
353.901	462.44
354.128	468.44
354.355	461.44
354.583	466.44
354.81	447.44
355.037	454.44
355.264	429.44
355.491	446.44
355.718	443.44
355.945	441.44
356.172	446.44
356.399	447.44
356.626	457.44
356.853	442.44
357.08	459.44
357.307	423.44
357.534	445.44
357.761	442.44
357.988	462.44
358.215	470.44
358.441	467.44
358.668	480.44
358.895	453.44
359.122	479.44
359.349	461.44
359.576	493.44
359.802	519.44
360.029	516.44
360.256	561.44
360.483	523.44
360.709	492.44
360.936	484.44
361.163	488.44
361.39	486.44
361.616	489.44
361.843	490.44
362.07	488.44
362.296	481.44
362.523	457.44
362.749	489.44
362.976	465.44
363.203	463.44
363.429	465.44
363.656	470.44
363.882	458.44
364.109	472.44
364.335	461.44
364.562	457.44
364.788	452.44
365.015	474.44
365.241	439.44
365.468	473.44
365.694	484.44
365.92	483.44
366.147	480.44
366.373	464.44
366.599	451.44
366.826	463.44
367.052	436.44
367.278	451.44
367.505	478.44
367.731	474.44
367.957	467.44
368.184	446.44
368.41	454.44
368.636	482.44
368.862	471.44
369.089	475.44
369.315	461.44
369.541	471.44
369.767	450.44
369.993	454.44
370.219	472.44
370.445	458.44
370.672	463.44
370.898	449.44
371.124	462.44
371.35	479.44
371.576	455.44
371.802	455.44
372.028	463.44
372.254	464.44
372.48	460.44
372.706	445.44
372.932	476.44
373.158	462.44
373.384	488.44
373.61	456.44
373.835	463.44
374.061	481.44
374.287	471.44
374.513	456.44
374.739	479.44
374.965	473.44
375.191	475.44
375.416	471.44
375.642	473.44
375.868	501.44
376.094	461.44
376.319	451.44
376.545	465.44
376.771	473.44
376.997	459.44
377.222	457.44
377.448	468.44
377.674	463.44
377.899	457.44
378.125	471.44
378.35	457.44
378.576	465.44
378.802	459.44
379.027	476.44
379.253	481.44
379.478	445.44
379.704	468.44
379.929	460.44
380.155	446.44
380.38	487.44
380.606	458.44
380.831	454.44
381.057	463.44
381.282	461.44
381.507	463.44
381.733	472.44
381.958	475.44
382.184	473.44
382.409	477.44
382.634	471.44
382.86	482.44
383.085	491.44
383.31	474.44
383.535	486.44
383.761	486.44
383.986	514.44
384.211	503.44
384.436	490.44
384.662	509.44
384.887	503.44
385.112	528.44
385.337	503.44
385.562	515.44
385.787	492.44
386.013	537.44
386.238	517.44
386.463	519.44
386.688	541.44
386.913	505.44
387.138	514.44
387.363	506.44
387.588	511.44
387.813	535.44
388.038	519.44
388.263	516.44
388.488	497.44
388.713	522.44
388.938	518.44
389.163	533.44
389.387	508.44
389.612	507.44
389.837	510.44
390.062	517.44
390.287	508.44
390.512	515.44
390.736	514.44
390.961	520.44
391.186	501.44
391.411	516.44
391.636	525.44
391.86	527.44
392.085	535.44
392.31	542.44
392.534	541.44
392.759	531.44
392.984	527.44
393.208	520.44
393.433	525.44
393.658	525.44
393.882	514.44
394.107	510.44
394.331	523.44
394.556	524.44
394.78	541.44
395.005	515.44
395.229	519.44
395.454	564.44
395.678	545.44
395.903	547.44
396.127	601.44
396.352	599.44
396.576	585.44
396.801	545.44
397.025	561.44
397.249	570.44
397.474	552.44
397.698	563.44
397.922	591.44
398.147	602.44
398.371	583.44
398.595	589.44
398.82	571.44
399.044	598.44
399.268	619.44
399.492	665.44
399.717	694.44
399.941	728.44
400.165	743.44
400.389	772.44
400.613	691.44
400.837	637.44
401.062	618.44
401.286	617.44
401.51	617.44
401.734	586.44
401.958	587.44
402.182	610.44
402.406	603.44
402.63	628.44
402.854	595.44
403.078	611.44
403.302	604.44
403.526	623.44
403.75	628.44
403.974	643.44
404.198	609.44
404.422	639.44
404.645	630.44
404.869	603.44
405.093	657.44
405.317	696.44
405.541	702.44
405.765	660.44
405.988	634.44
406.212	653.44
406.436	684.44
406.66	713.44
406.883	677.44
407.107	695.44
407.331	777.44
407.555	883.44
407.778	834.44
408.002	744.44
408.226	714.44
408.449	697.44
408.673	723.44
408.896	741.44
409.12	784.44
409.344	729.44
409.567	648.44
409.791	630.44
410.014	637.44
410.238	614.44
410.461	638.44
410.685	637.44
410.908	666.44
411.132	705.44
411.355	717.44
411.578	708.44
411.802	654.44
412.025	626.44
412.249	648.44
412.472	651.44
412.695	653.44
412.919	627.44
413.142	619.44
413.365	599.44
413.589	619.44
413.812	588.44
414.035	601.44
414.258	603.44
414.482	589.44
414.705	599.44
414.928	598.44
415.151	606.44
415.374	593.44
415.597	601.44
415.821	601.44
416.044	582.44
416.267	575.44
416.49	589.44
416.713	597.44
416.936	587.44
417.159	561.44
417.382	577.44
417.605	606.44
417.828	590.44
418.051	613.44
418.274	615.44
418.497	604.44
418.72	594.44
418.943	584.44
419.166	590.44
419.389	639.44
419.611	662.44
419.834	630.44
420.057	633.44
420.28	625.44
420.503	611.44
420.726	612.44
420.948	611.44
421.171	667.44
421.394	715.44
421.617	635.44
421.839	617.44
422.062	605.44
422.285	631.44
422.507	715.44
422.73	809.44
422.953	787.44
423.175	677.44
423.398	647.44
423.621	622.44
423.843	635.44
424.066	687.44
424.288	670.44
424.511	686.44
424.733	764.44
424.956	857.44
425.178	805.44
425.401	790.44
425.623	872.44
425.846	711.44
426.068	676.44
426.291	670.44
426.513	669.44
426.735	691.44
426.958	743.44
427.18	828.44
427.402	982.44
427.625	1050.44
427.847	945.44
428.069	756.44
428.292	711.44
428.514	655.44
428.736	615.44
428.958	625.44
429.181	613.44
429.403	615.44
429.625	641.44
429.847	661.44
430.069	751.44
430.292	730.44
430.514	648.44
430.736	629.44
430.958	611.44
431.18	606.44
431.402	584.44
431.624	571.44
431.846	605.44
432.068	573.44
432.29	567.44
432.512	589.44
432.734	588.44
432.956	597.44
433.178	600.44
433.4	587.44
433.622	616.44
433.844	607.44
434.066	591.44
434.287	580.44
434.509	590.44
434.731	606.44
434.953	594.44
435.175	623.44
435.397	652.44
435.618	669.44
435.84	702.44
436.062	824.44
436.284	946.44
436.505	745.44
436.727	680.44
436.949	638.44
437.17	621.44
437.392	628.44
437.614	637.44
437.835	683.44
438.057	769.44
438.278	924.44
438.5	910.44
438.721	986.44
438.943	947.44
439.165	771.44
439.386	705.44
439.608	662.44
439.829	678.44
440.05	694.44
440.272	723.44
440.493	724.44
440.715	664.44
440.936	648.44
441.158	637.44
441.379	635.44
441.6	664.44
441.822	686.44
442.043	714.44
442.264	792.44
442.486	875.44
442.707	729.44
442.928	670.44
443.149	673.44
443.371	705.44
443.592	756.44
443.813	907.44
444.034	972.44
444.255	798.44
444.476	700.44
444.698	671.44
444.919	692.44
445.14	819.44
445.361	744.44
445.582	698.44
445.803	806.44
446.024	914.44
446.245	930.44
446.466	852.44
446.687	731.44
446.908	686.44
447.129	640.44
447.35	636.44
447.571	597.44
447.792	598.44
448.013	623.44
448.234	626.44
448.455	697.44
448.675	822.44
448.896	983.44
449.117	811.44
449.338	794.44
449.559	901.44
449.779	1043.44
450	825.44
450.221	708.44
450.442	643.44
450.662	596.44
450.883	619.44
451.104	601.44
451.324	647.44
451.545	584.44
451.766	566.44
451.986	529.44
452.207	551.44
452.428	540.44
452.648	562.44
452.869	551.44
453.089	555.44
453.31	567.44
453.53	563.44
453.751	554.44
453.971	537.44
454.192	577.44
454.412	549.44
454.633	564.44
454.853	549.44
455.073	519.44
455.294	582.44
455.514	654.44
455.734	649.44
455.955	555.44
456.175	543.44
456.395	531.44
456.616	542.44
456.836	507.44
457.056	496.44
457.276	518.44
457.497	537.44
457.717	509.44
457.937	550.44
458.157	547.44
458.377	558.44
458.598	574.44
458.818	647.44
459.038	753.44
459.258	757.44
459.478	663.44
459.698	593.44
459.918	596.44
460.138	597.44
460.358	613.44
460.578	604.44
460.798	612.44
461.018	618.44
461.238	599.44
461.458	608.44
461.678	591.44
461.898	607.44
462.118	606.44
462.338	629.44
462.558	627.44
462.777	650.44
462.997	658.44
463.217	670.44
463.437	669.44
463.657	673.44
463.876	651.44
464.096	651.44
464.316	647.44
464.536	630.44
464.755	635.44
464.975	635.44
465.195	684.44
465.414	794.44
465.634	679.44
465.854	660.44
466.073	604.44
466.293	626.44
466.512	584.44
466.732	576.44
466.951	590.44
467.171	566.44
467.391	573.44
467.61	595.44
467.829	609.44
468.049	587.44
468.268	566.44
468.488	545.44
468.707	559.44
468.927	568.44
469.146	553.44
469.365	560.44
469.585	539.44
469.804	571.44
470.023	601.44
470.243	581.44
470.462	565.44
470.681	607.44
470.901	587.44
471.12	538.44
471.339	561.44
471.558	563.44
471.777	591.44
471.997	563.44
472.216	566.44
472.435	569.44
472.654	570.44
472.873	581.44
473.092	575.44
473.311	565.44
473.53	564.44
473.749	599.44
473.968	615.44
474.187	722.44
474.406	784.44
474.625	639.44
474.844	619.44
475.063	590.44
475.282	583.44
475.501	571.44
475.72	602.44
475.939	568.44
476.158	575.44
476.377	587.44
476.596	589.44
476.814	595.44
477.033	587.44
477.252	614.44
477.471	614.44
477.69	635.44
477.908	627.44
478.127	607.44
478.346	622.44
478.564	639.44
478.783	651.44
479.002	673.44
479.22	665.44
479.439	681.44
479.658	675.44
479.876	705.44
480.095	711.44
480.313	715.44
480.532	725.44
480.751	712.44
480.969	713.44
481.188	720.44
481.406	718.44
481.624	699.44
481.843	690.44
482.061	667.44
482.28	679.44
482.498	667.44
482.717	664.44
482.935	674.44
483.153	657.44
483.372	668.44
483.59	678.44
483.808	709.44
484.027	678.44
484.245	687.44
484.463	682.44
484.681	679.44
484.9	684.44
485.118	681.44
485.336	686.44
485.554	714.44
485.772	724.44
485.99	673.44
486.209	701.44
486.427	680.44
486.645	715.44
486.863	746.44
487.081	711.44
487.299	743.44
487.517	735.44
487.735	715.44
487.953	715.44
488.171	733.44
488.389	748.44
488.607	718.44
488.825	725.44
489.043	756.44
489.261	755.44
489.479	744.44
489.696	721.44
489.914	747.44
490.132	779.44
490.35	777.44
490.568	759.44
490.786	766.44
491.003	778.44
491.221	761.44
491.439	801.44
491.657	812.44
491.874	813.44
492.092	829.44
492.31	799.44
492.527	798.44
492.745	807.44
492.963	825.44
493.18	847.44
493.398	828.44
493.615	855.44
493.833	846.44
494.05	854.44
494.268	851.44
494.485	857.44
494.703	847.44
494.92	858.44
495.138	886.44
495.355	881.44
495.573	873.44
495.79	847.44
496.008	882.44
496.225	891.44
496.442	842.44
496.66	891.44
496.877	873.44
497.094	883.44
497.312	883.44
497.529	874.44
497.746	893.44
497.963	929.44
498.181	966.44
498.398	971.44
498.615	994.44
498.832	1006.44
499.049	1026.44
499.267	1051.44
499.484	1069.44
499.701	1114.44
499.918	1151.44
500.135	1185.44
500.352	1223.44
500.569	1265.44
500.786	1239.44
501.003	1261.44
501.22	1196.44
501.437	1153.44
501.654	1134.44
501.871	1140.44
502.088	1105.44
502.305	1036.44
502.522	1006.44
502.739	994.44
502.956	969.44
503.172	953.44
503.389	908.44
503.606	925.44
503.823	925.44
504.04	901.44
504.256	888.44
504.473	881.44
504.69	899.44
504.907	906.44
505.123	865.44
505.34	855.44
505.557	859.44
505.773	839.44
505.99	833.44
506.207	830.44
506.423	824.44
506.64	812.44
506.856	785.44
507.073	848.44
507.289	829.44
507.506	801.44
507.722	822.44
507.939	845.44
508.155	807.44
508.372	789.44
508.588	811.44
508.805	807.44
509.021	794.44
509.238	797.44
509.454	791.44
509.67	793.44
509.887	801.44
510.103	757.44
510.319	773.44
510.536	910.44
510.752	1387.44
510.968	1205.44
511.184	812.44
511.401	785.44
511.617	754.44
511.833	761.44
512.049	735.44
512.265	731.44
512.481	754.44
512.698	734.44
512.914	728.44
513.13	752.44
513.346	769.44
513.562	711.44
513.778	743.44
513.994	764.44
514.21	760.44
514.426	782.44
514.642	840.44
514.858	854.44
515.074	906.44
515.29	1061.44
515.506	1479.44
515.721	1276.44
515.937	923.44
516.153	842.44
516.369	843.44
516.585	814.44
516.801	796.44
517.016	785.44
517.232	797.44
517.448	788.44
517.664	809.44
517.879	793.44
518.095	809.44
518.311	755.44
518.527	799.44
518.742	786.44
518.958	761.44
519.173	754.44
519.389	720.44
519.605	781.44
519.82	745.44
520.036	777.44
520.251	782.44
520.467	818.44
520.682	806.44
520.898	842.44
521.113	870.44
521.329	898.44
521.544	974.44
521.76	1235.44
521.975	1907.44
522.19	1897.44
522.406	1081.44
522.621	841.44
522.836	788.44
523.052	771.44
523.267	718.44
523.482	722.44
523.698	709.44
523.913	697.44
524.128	700.44
524.343	668.44
524.559	659.44
524.774	661.44
524.989	682.44
525.204	661.44
525.419	677.44
525.634	651.44
525.849	665.44
526.064	637.44
526.28	618.44
526.495	627.44
526.71	627.44
526.925	626.44
527.14	617.44
527.355	630.44
527.57	631.44
527.785	636.44
527.999	606.44
528.214	603.44
528.429	590.44
528.644	612.44
528.859	622.44
529.074	614.44
529.289	646.44
529.503	721.44
529.718	731.44
529.933	644.44
530.148	630.44
530.363	637.44
530.577	606.44
530.792	611.44
531.007	611.44
531.221	607.44
531.436	618.44
531.651	595.44
531.865	592.44
532.08	599.44
532.295	610.44
532.509	587.44
532.724	600.44
532.938	595.44
533.153	594.44
533.367	589.44
533.582	585.44
533.796	578.44
534.011	603.44
534.225	589.44
534.44	573.44
534.654	584.44
534.868	576.44
535.083	601.44
535.297	595.44
535.511	595.44
535.726	606.44
535.94	602.44
536.154	588.44
536.369	599.44
536.583	583.44
536.797	568.44
537.011	569.44
537.225	563.44
537.44	589.44
537.654	561.44
537.868	555.44
538.082	556.44
538.296	579.44
538.51	575.44
538.724	558.44
538.938	575.44
539.153	557.44
539.367	571.44
539.581	573.44
539.795	566.44
540.009	542.44
540.222	554.44
540.436	595.44
540.65	558.44
540.864	570.44
541.078	553.44
541.292	581.44
541.506	568.44
541.72	574.44
541.934	584.44
542.147	573.44
542.361	550.44
542.575	522.44
542.789	562.44
543.002	548.44
543.216	553.44
543.43	572.44
543.644	536.44
543.857	553.44
544.071	560.44
544.285	542.44
544.498	556.44
544.712	553.44
544.925	562.44
545.139	557.44
545.352	529.44
545.566	547.44
545.779	546.44
545.993	537.44
546.206	533.44
546.42	565.44
546.633	533.44
546.847	537.44
547.06	531.44
547.274	527.44
547.487	548.44
547.7	552.44
547.914	509.44
548.127	521.44
548.34	525.44
548.554	511.44
548.767	531.44
548.98	515.44
549.193	548.44
549.407	513.44
549.62	535.44
549.833	538.44
550.046	540.44
550.259	546.44
550.473	527.44
550.686	516.44
550.899	540.44
551.112	500.44
551.325	515.44
551.538	543.44
551.751	510.44
551.964	518.44
552.177	534.44
552.39	511.44
552.603	524.44
552.816	511.44
553.029	537.44
553.242	552.44
553.455	543.44
553.667	554.44
553.88	569.44
554.093	550.44
554.306	531.44
554.519	540.44
554.732	533.44
554.944	510.44
555.157	513.44
555.37	521.44
555.583	510.44
555.795	504.44
556.008	513.44
556.221	496.44
556.433	469.44
556.646	489.44
556.859	491.44
557.071	455.44
557.284	482.44
557.496	493.44
557.709	487.44
557.921	484.44
558.134	481.44
558.346	470.44
558.559	484.44
558.771	488.44
558.984	480.44
559.196	483.44
559.409	482.44
559.621	486.44
559.833	462.44
560.046	475.44
560.258	476.44
560.47	466.44
560.683	489.44
560.895	483.44
561.107	467.44
561.32	441.44
561.532	489.44
561.744	481.44
561.956	446.44
562.168	466.44
562.381	492.44
562.593	481.44
562.805	491.44
563.017	475.44
563.229	476.44
563.441	477.44
563.653	487.44
563.865	467.44
564.077	472.44
564.289	508.44
564.501	494.44
564.713	502.44
564.925	493.44
565.137	509.44
565.349	489.44
565.561	524.44
565.773	528.44
565.985	540.44
566.197	537.44
566.408	582.44
566.62	553.44
566.832	597.44
567.044	593.44
567.255	607.44
567.467	582.44
567.679	598.44
567.891	609.44
568.102	616.44
568.314	606.44
568.526	563.44
568.737	547.44
568.949	548.44
569.161	530.44
569.372	527.44
569.584	536.44
569.795	502.44
570.007	482.44
570.218	522.44
570.43	539.44
570.641	473.44
570.853	477.44
571.064	479.44
571.276	486.44
571.487	441.44
571.698	460.44
571.91	454.44
572.121	434.44
572.333	434.44
572.544	423.44
572.755	418.44
572.966	418.44
573.178	430.44
573.389	407.44
573.6	422.44
573.811	406.44
574.023	413.44
574.234	407.44
574.445	429.44
574.656	410.44
574.867	420.44
575.078	409.44
575.289	419.44
575.501	403.44
575.712	379.44
575.923	392.44
576.134	398.44
576.345	402.44
576.556	415.44
576.767	401.44
576.978	392.44
577.188	397.44
577.399	401.44
577.61	379.44
577.821	391.44
578.032	394.44
578.243	441.44
578.454	680.44
578.665	519.44
578.875	409.44
579.086	389.44
579.297	397.44
579.508	354.44
579.718	365.44
579.929	367.44
580.14	383.44
580.35	380.44
580.561	383.44
580.772	384.44
580.982	364.44
581.193	358.44
581.403	376.44
581.614	373.44
581.825	373.44
582.035	382.44
582.246	385.44
582.456	369.44
582.667	381.44
582.877	367.44
583.087	369.44
583.298	360.44
583.508	371.44
583.719	353.44
583.929	375.44
584.139	357.44
584.35	380.44
584.56	354.44
584.77	382.44
584.981	354.44
585.191	350.44
585.401	353.44
585.611	361.44
585.821	345.44
586.032	376.44
586.242	347.44
586.452	355.44
586.662	350.44
586.872	347.44
587.082	342.44
587.292	340.44
587.502	338.44
587.713	345.44
587.923	366.44
588.133	330.44
588.343	343.44
588.553	353.44
588.762	347.44
588.972	348.44
589.182	362.44
589.392	356.44
589.602	356.44
589.812	354.44
590.022	348.44
590.232	343.44
590.441	332.44
590.651	350.44
590.861	358.44
591.071	355.44
591.281	360.44
591.49	358.44
591.7	357.44
591.91	342.44
592.119	358.44
592.329	349.44
592.539	387.44
592.748	374.44
592.958	378.44
593.167	370.44
593.377	362.44
593.587	374.44
593.796	397.44
594.006	364.44
594.215	375.44
594.424	389.44
594.634	369.44
594.843	366.44
595.053	353.44
595.262	337.44
595.472	349.44
595.681	341.44
595.89	352.44
596.1	345.44
596.309	360.44
596.518	327.44
596.727	337.44
596.937	324.44
597.146	322.44
597.355	318.44
597.564	313.44
597.774	323.44
597.983	332.44
598.192	337.44
598.401	324.44
598.61	326.44
598.819	315.44
599.028	324.44
599.237	312.44
599.446	314.44
599.655	315.44
599.864	326.44
600.073	326.44
600.282	304.44
600.491	307.44
600.7	309.44
600.909	309.44
601.118	297.44
601.327	313.44
601.536	310.44
601.745	289.44
601.953	306.44
602.162	319.44
602.371	306.44
602.58	307.44
602.789	304.44
602.997	306.44
603.206	303.44
603.415	289.44
603.623	295.44
603.832	296.44
604.041	287.44
604.249	290.44
604.458	285.44
604.666	294.44
604.875	297.44
605.084	286.44
605.292	293.44
605.501	287.44
605.709	290.44
605.918	286.44
606.126	266.44
606.334	296.44
606.543	288.44
606.751	283.44
606.96	299.44
607.168	292.44
607.376	292.44
607.585	282.44
607.793	289.44
608.001	277.44
608.21	279.44
608.418	266.44
608.626	280.44
608.834	284.44
609.043	277.44
609.251	279.44
609.459	270.44
609.667	289.44
609.875	306.44
610.083	306.44
610.291	262.44
610.499	258.44
610.707	250.44
610.916	278.44
611.124	292.44
611.332	287.44
611.54	282.44
611.748	285.44
611.955	282.44
612.163	293.44
612.371	284.44
612.579	268.44
612.787	268.44
612.995	294.44
613.203	277.44
613.411	291.44
613.618	274.44
613.826	285.44
614.034	275.44
614.242	262.44
614.449	281.44
614.657	270.44
614.865	264.44
615.072	253.44
615.28	271.44
615.488	282.44
615.695	278.44
615.903	262.44
616.111	295.44
616.318	297.44
616.526	261.44
616.733	284.44
616.941	268.44
617.148	282.44
617.356	272.44
617.563	286.44
617.771	276.44
617.978	283.44
618.185	260.44
618.393	253.44
618.6	273.44
618.807	291.44
619.015	261.44
619.222	247.44
619.429	256.44
619.637	250.44
619.844	274.44
620.051	263.44
620.258	270.44
620.466	261.44
620.673	259.44
620.88	256.44
621.087	246.44
621.294	268.44
621.501	229.44
621.708	246.44
621.915	262.44
622.122	261.44
622.329	267.44
622.536	248.44
622.743	242.44
622.95	255.44
623.157	269.44
623.364	257.44
623.571	259.44
623.778	259.44
623.985	247.44
624.192	243.44
624.399	281.44
624.606	254.44
624.812	241.44
625.019	257.44
625.226	239.44
625.433	239.44
625.639	230.44
625.846	242.44
626.053	236.44
626.259	229.44
626.466	248.44
626.673	221.44
626.879	253.44
627.086	257.44
627.293	242.44
627.499	225.44
627.706	240.44
627.912	229.44
628.119	227.44
628.325	231.44
628.532	246.44
628.738	232.44
628.945	215.44
629.151	219.44
629.357	231.44
629.564	243.44
629.77	231.44
629.976	235.44
630.183	229.44
630.389	224.44
630.595	237.44
630.802	224.44
631.008	226.44
631.214	210.44
631.42	218.44
631.627	213.44
631.833	223.44
632.039	213.44
632.245	206.44
632.451	236.44
632.657	205.44
632.863	212.44
633.069	232.44
633.275	219.44
633.481	227.44
633.688	196.44
633.893	211.44
634.099	211.44
634.305	195.44
634.511	212.44
634.717	203.44
634.923	220.44
635.129	211.44
635.335	209.44
635.541	196.44
635.747	191.44
635.952	217.44
636.158	207.44
636.364	213.44
636.57	217.44
636.775	219.44
636.981	217.44
637.187	215.44
637.392	205.44
637.598	211.44
637.804	210.44
638.009	207.44
638.215	211.44
638.421	213.44
638.626	193.44
638.832	196.44
639.037	210.44
639.243	183.44
639.448	188.44
639.654	207.44
639.859	187.44
640.065	201.44
640.27	214.44
640.475	189.44
640.681	185.44
640.886	174.44
641.091	194.44
641.297	192.44
641.502	193.44
641.707	195.44
641.913	197.44
642.118	191.44
642.323	179.44
642.528	189.44
642.733	183.44
642.939	186.44
643.144	185.44
643.349	188.44
643.554	168.44
643.759	185.44
643.964	193.44
644.169	189.44
644.374	191.44
644.579	189.44
644.784	184.44
644.989	184.44
645.194	161.44
645.399	186.44
645.604	204.44
645.809	183.44
646.014	194.44
646.219	174.44
646.423	177.44
646.628	179.44
646.833	192.44
647.038	182.44
647.243	199.44
647.447	190.44
647.652	184.44
647.857	194.44
648.062	178.44
648.266	196.44
648.471	196.44
648.676	187.44
648.88	179.44
649.085	195.44
649.289	185.44
649.494	192.44
649.698	213.44
649.903	227.44
650.107	209.44
650.312	171.44
650.516	180.44
650.721	179.44
650.925	161.44
651.13	165.44
651.334	180.44
651.539	158.44
651.743	168.44
651.947	179.44
652.152	147.44
652.356	157.44
652.56	167.44
652.764	156.44
652.969	155.44
653.173	154.44
653.377	153.44
653.581	151.44
653.785	163.44
653.99	149.44
654.194	152.44
654.398	150.44
654.602	153.44
654.806	156.44
655.01	152.44
655.214	150.44
655.418	133.44
655.622	139.44
655.826	153.44
656.03	133.44
656.234	157.44
656.438	150.44
656.642	150.44
656.846	129.44
657.049	140.44
657.253	139.44
657.457	133.44
657.661	129.44
657.865	132.44
658.068	109.44
658.272	133.44
658.476	124.44
658.68	122.44
658.883	103.44
659.087	127.44
659.291	115.44
659.494	110.44
659.698	101.44
659.901	101.44
660.105	100.44
660.309	81.44
660.512	113.44
660.716	111.44
660.919	116.44
661.123	124.44
661.326	89.44
661.53	98.44
661.733	88.44
661.936	100.44
662.14	97.44
662.343	97.44
662.546	75.44
662.75	97.44
662.953	91.44
663.156	91.44
663.36	76.44
663.563	88.44
663.766	97.44
663.969	78.44
664.173	76.44
664.376	79.44
664.579	97.44
664.782	90.44
664.985	81.44
665.188	87.44
665.391	95.44
665.594	95.44
665.797	82.44
666	94.44
666.203	85.44
666.406	93.44
666.609	76.44
666.812	90.44
667.015	91.44
667.218	73.44
667.421	89.44
667.624	84.44
667.827	74.44
668.03	83.44
668.232	78.44
668.435	72.44
668.638	91.44
668.841	87.44
669.043	89.44
669.246	87.44
669.449	92.44
669.651	99.44
669.854	90.44
670.057	85.44
670.259	68.44
670.462	90.44
670.665	93.44
670.867	86.44
671.07	78.44
671.272	74.44
671.475	85.44
671.677	101.44
671.88	85.44
672.082	80.44
672.284	88.44
672.487	79.44
672.689	80.44
672.892	85.44
