Data from 1989.PennyLincolnUp.Lamp.En5.5.200Scan.071819.P2_HRD10591_17-26-24-980.txt Node
Date: Thu Jul 18 17:26:24 EDT 2019
User: cochatt
Spectrometer: HR+D1059
Trigger mode: 1
Integration Time (sec): 1.000000E-1
Scans to average: 1
Electric dark correction enabled: true
Nonlinearity correction enabled: false
Boxcar width: 0
XAxis mode: Wavelengths
Number of Pixels in Spectrum: 2048
>>>>>Begin Spectral Data<<<<<
223.165	-16.88
223.4	-16.88
223.635	-16.88
223.869	-9.88
224.104	-17.88
224.338	-28.88
224.573	-17.88
224.808	-13.88
225.042	1.12
225.277	-12.88
225.511	-1.88
225.746	8.12
225.98	-2.88
226.215	21.12
226.449	20.12
226.683	29.12
226.918	16.12
227.152	27.12
227.387	32.12
227.621	29.12
227.856	33.12
228.09	46.12
228.324	46.12
228.559	46.12
228.793	66.12
229.027	105.12
229.262	98.12
229.496	103.12
229.73	151.12
229.964	162.12
230.199	152.12
230.433	133.12
230.667	118.12
230.901	119.12
231.136	121.12
231.37	121.12
231.604	123.12
231.838	124.12
232.072	116.12
232.306	118.12
232.541	113.12
232.775	111.12
233.009	115.12
233.243	114.12
233.477	104.12
233.711	130.12
233.945	111.12
234.179	120.12
234.413	129.12
234.647	119.12
234.881	136.12
235.115	131.12
235.349	118.12
235.583	122.12
235.817	139.12
236.051	123.12
236.285	127.12
236.519	124.12
236.753	123.12
236.987	145.12
237.221	191.12
237.455	241.12
237.689	207.12
237.922	141.12
238.156	143.12
238.39	140.12
238.624	121.12
238.858	124.12
239.091	146.12
239.325	129.12
239.559	133.12
239.793	136.12
240.027	150.12
240.26	142.12
240.494	166.12
240.728	155.12
240.961	152.12
241.195	151.12
241.429	141.12
241.662	150.12
241.896	153.12
242.13	141.12
242.363	146.12
242.597	148.12
242.83	152.12
243.064	129.12
243.298	155.12
243.531	142.12
243.765	141.12
243.998	143.12
244.232	138.12
244.465	123.12
244.699	151.12
244.932	153.12
245.166	156.12
245.399	160.12
245.633	169.12
245.866	167.12
246.099	155.12
246.333	152.12
246.566	147.12
246.8	170.12
247.033	161.12
247.266	179.12
247.5	156.12
247.733	191.12
247.966	183.12
248.2	188.12
248.433	181.12
248.666	192.12
248.899	197.12
249.133	219.12
249.366	233.12
249.599	223.12
249.832	196.12
250.066	205.12
250.299	206.12
250.532	233.12
250.765	241.12
250.998	261.12
251.231	288.12
251.465	259.12
251.698	242.12
251.931	224.12
252.164	233.12
252.397	228.12
252.63	243.12
252.863	235.12
253.096	253.12
253.329	253.12
253.562	256.12
253.795	250.12
254.028	241.12
254.261	245.12
254.494	265.12
254.727	295.12
254.96	308.12
255.193	308.12
255.426	311.12
255.659	271.12
255.892	283.12
256.124	293.12
256.357	298.12
256.59	292.12
256.823	265.12
257.056	249.12
257.289	235.12
257.521	257.12
257.754	238.12
257.987	235.12
258.22	230.12
258.452	245.12
258.685	251.12
258.918	237.12
259.151	243.12
259.383	235.12
259.616	247.12
259.849	243.12
260.081	277.12
260.314	292.12
260.547	300.12
260.779	284.12
261.012	291.12
261.244	277.12
261.477	261.12
261.71	241.12
261.942	255.12
262.175	266.12
262.407	251.12
262.64	237.12
262.872	245.12
263.105	247.12
263.337	236.12
263.57	228.12
263.802	241.12
264.035	247.12
264.267	237.12
264.499	231.12
264.732	243.12
264.964	222.12
265.197	264.12
265.429	241.12
265.661	245.12
265.894	244.12
266.126	231.12
266.358	241.12
266.591	245.12
266.823	236.12
267.055	261.12
267.287	251.12
267.52	258.12
267.752	261.12
267.984	247.12
268.216	257.12
268.448	241.12
268.681	257.12
268.913	257.12
269.145	283.12
269.377	298.12
269.609	298.12
269.841	324.12
270.073	330.12
270.306	321.12
270.538	345.12
270.77	361.12
271.002	356.12
271.234	339.12
271.466	330.12
271.698	344.12
271.93	378.12
272.162	365.12
272.394	349.12
272.626	351.12
272.858	335.12
273.09	335.12
273.322	305.12
273.553	309.12
273.785	289.12
274.017	306.12
274.249	272.12
274.481	285.12
274.713	289.12
274.945	276.12
275.176	293.12
275.408	307.12
275.64	317.12
275.872	317.12
276.104	281.12
276.335	282.12
276.567	313.12
276.799	326.12
277.031	358.12
277.262	363.12
277.494	381.12
277.726	352.12
277.957	325.12
278.189	313.12
278.421	317.12
278.652	320.12
278.884	306.12
279.115	286.12
279.347	300.12
279.579	291.12
279.81	305.12
280.042	317.12
280.273	299.12
280.505	305.12
280.736	301.12
280.968	300.12
281.199	315.12
281.431	279.12
281.662	294.12
281.894	306.12
282.125	314.12
282.356	314.12
282.588	339.12
282.819	324.12
283.051	311.12
283.282	304.12
283.513	316.12
283.745	299.12
283.976	335.12
284.207	312.12
284.439	298.12
284.67	302.12
284.901	296.12
285.132	289.12
285.364	308.12
285.595	305.12
285.826	319.12
286.057	310.12
286.288	300.12
286.52	310.12
286.751	313.12
286.982	313.12
287.213	310.12
287.444	298.12
287.675	316.12
287.906	307.12
288.138	330.12
288.369	325.12
288.6	335.12
288.831	326.12
289.062	339.12
289.293	304.12
289.524	309.12
289.755	332.12
289.986	302.12
290.217	321.12
290.448	333.12
290.679	318.12
290.91	339.12
291.141	324.12
291.371	309.12
291.602	307.12
291.833	315.12
292.064	319.12
292.295	320.12
292.526	309.12
292.757	316.12
292.987	338.12
293.218	317.12
293.449	331.12
293.68	335.12
293.91	326.12
294.141	305.12
294.372	309.12
294.603	319.12
294.833	311.12
295.064	329.12
295.295	317.12
295.525	320.12
295.756	328.12
295.987	329.12
296.217	365.12
296.448	361.12
296.679	339.12
296.909	330.12
297.14	315.12
297.37	326.12
297.601	326.12
297.831	322.12
298.062	320.12
298.292	334.12
298.523	326.12
298.753	334.12
298.984	315.12
299.214	351.12
299.445	330.12
299.675	337.12
299.905	337.12
300.136	343.12
300.366	348.12
300.597	330.12
300.827	359.12
301.057	346.12
301.288	354.12
301.518	359.12
301.748	343.12
301.979	353.12
302.209	340.12
302.439	362.12
302.669	360.12
302.9	358.12
303.13	355.12
303.36	354.12
303.59	377.12
303.82	358.12
304.051	370.12
304.281	358.12
304.511	353.12
304.741	347.12
304.971	366.12
305.201	336.12
305.431	357.12
305.661	349.12
305.891	357.12
306.121	367.12
306.352	379.12
306.582	376.12
306.812	347.12
307.042	354.12
307.272	380.12
307.502	357.12
307.731	360.12
307.961	367.12
308.191	373.12
308.421	358.12
308.651	371.12
308.881	371.12
309.111	377.12
309.341	386.12
309.571	402.12
309.8	421.12
310.03	407.12
310.26	417.12
310.49	409.12
310.72	422.12
310.949	440.12
311.179	442.12
311.409	413.12
311.639	422.12
311.868	405.12
312.098	421.12
312.328	425.12
312.557	443.12
312.787	470.12
313.017	470.12
313.246	437.12
313.476	409.12
313.706	397.12
313.935	430.12
314.165	444.12
314.394	459.12
314.624	437.12
314.853	445.12
315.083	438.12
315.312	405.12
315.542	419.12
315.771	402.12
316.001	401.12
316.23	423.12
316.46	394.12
316.689	414.12
316.919	413.12
317.148	433.12
317.377	435.12
317.607	424.12
317.836	442.12
318.065	423.12
318.295	419.12
318.524	424.12
318.753	414.12
318.983	422.12
319.212	410.12
319.441	413.12
319.67	449.12
319.9	441.12
320.129	427.12
320.358	430.12
320.587	407.12
320.816	449.12
321.046	452.12
321.275	453.12
321.504	452.12
321.733	466.12
321.962	459.12
322.191	468.12
322.42	469.12
322.649	518.12
322.878	515.12
323.108	527.12
323.337	570.12
323.566	573.12
323.795	631.12
324.024	659.12
324.253	843.12
324.482	1202.12
324.71	1846.12
324.939	2633.12
325.168	2280.12
325.397	1179.12
325.626	812.12
325.855	668.12
326.084	584.12
326.313	595.12
326.542	609.12
326.77	640.12
326.999	785.12
327.228	1061.12
327.457	1632.12
327.686	1989.12
327.914	1323.12
328.143	871.12
328.372	775.12
328.6	709.12
328.829	703.12
329.058	675.12
329.287	678.12
329.515	673.12
329.744	632.12
329.972	594.12
330.201	667.12
330.43	731.12
330.658	724.12
330.887	734.12
331.115	710.12
331.344	606.12
331.572	590.12
331.801	577.12
332.03	565.12
332.258	532.12
332.486	527.12
332.715	507.12
332.943	502.12
333.172	491.12
333.4	530.12
333.629	541.12
333.857	537.12
334.085	575.12
334.314	638.12
334.542	687.12
334.771	709.12
334.999	632.12
335.227	556.12
335.455	526.12
335.684	510.12
335.912	498.12
336.14	497.12
336.369	471.12
336.597	490.12
336.825	481.12
337.053	497.12
337.281	464.12
337.51	496.12
337.738	458.12
337.966	478.12
338.194	457.12
338.422	498.12
338.65	457.12
338.878	483.12
339.106	455.12
339.334	473.12
339.562	462.12
339.79	469.12
340.018	467.12
340.246	479.12
340.474	467.12
340.702	453.12
340.93	458.12
341.158	455.12
341.386	453.12
341.614	446.12
341.842	459.12
342.07	452.12
342.298	470.12
342.526	462.12
342.754	434.12
342.981	428.12
343.209	438.12
343.437	452.12
343.665	446.12
343.893	468.12
344.12	467.12
344.348	447.12
344.576	447.12
344.804	459.12
345.031	463.12
345.259	486.12
345.487	499.12
345.714	467.12
345.942	454.12
346.17	445.12
346.397	457.12
346.625	474.12
346.853	444.12
347.08	444.12
347.308	457.12
347.535	452.12
347.763	452.12
347.99	450.12
348.218	453.12
348.445	465.12
348.673	466.12
348.9	459.12
349.128	444.12
349.355	441.12
349.583	414.12
349.81	435.12
350.037	420.12
350.265	423.12
350.492	422.12
350.72	423.12
350.947	456.12
351.174	458.12
351.402	453.12
351.629	465.12
351.856	450.12
352.083	470.12
352.311	502.12
352.538	461.12
352.765	469.12
352.992	458.12
353.22	445.12
353.447	450.12
353.674	428.12
353.901	423.12
354.128	433.12
354.355	414.12
354.583	421.12
354.81	414.12
355.037	408.12
355.264	415.12
355.491	412.12
355.718	388.12
355.945	389.12
356.172	403.12
356.399	388.12
356.626	401.12
356.853	415.12
357.08	417.12
357.307	418.12
357.534	413.12
357.761	417.12
357.988	410.12
358.215	399.12
358.441	404.12
358.668	389.12
358.895	416.12
359.122	411.12
359.349	421.12
359.576	436.12
359.802	472.12
360.029	486.12
360.256	502.12
360.483	484.12
360.709	439.12
360.936	449.12
361.163	420.12
361.39	438.12
361.616	443.12
361.843	441.12
362.07	434.12
362.296	435.12
362.523	426.12
362.749	428.12
362.976	442.12
363.203	430.12
363.429	405.12
363.656	407.12
363.882	418.12
364.109	408.12
364.335	388.12
364.562	410.12
364.788	407.12
365.015	411.12
365.241	424.12
365.468	438.12
365.694	428.12
365.92	409.12
366.147	423.12
366.373	412.12
366.599	425.12
366.826	391.12
367.052	404.12
367.278	392.12
367.505	406.12
367.731	443.12
367.957	400.12
368.184	400.12
368.41	414.12
368.636	416.12
368.862	422.12
369.089	412.12
369.315	398.12
369.541	402.12
369.767	411.12
369.993	415.12
370.219	402.12
370.445	409.12
370.672	413.12
370.898	383.12
371.124	416.12
371.35	433.12
371.576	396.12
371.802	405.12
372.028	407.12
372.254	390.12
372.48	421.12
372.706	403.12
372.932	389.12
373.158	394.12
373.384	397.12
373.61	426.12
373.835	430.12
374.061	387.12
374.287	413.12
374.513	394.12
374.739	417.12
374.965	405.12
375.191	404.12
375.416	387.12
375.642	406.12
375.868	405.12
376.094	403.12
376.319	381.12
376.545	389.12
376.771	404.12
376.997	387.12
377.222	395.12
377.448	386.12
377.674	389.12
377.899	387.12
378.125	401.12
378.35	388.12
378.576	393.12
378.802	399.12
379.027	381.12
379.253	393.12
379.478	379.12
379.704	401.12
379.929	424.12
380.155	398.12
380.38	418.12
380.606	406.12
380.831	384.12
381.057	396.12
381.282	424.12
381.507	414.12
381.733	398.12
381.958	390.12
382.184	386.12
382.409	406.12
382.634	399.12
382.86	427.12
383.085	412.12
383.31	398.12
383.535	403.12
383.761	412.12
383.986	389.12
384.211	415.12
384.436	396.12
384.662	407.12
384.887	421.12
385.112	398.12
385.337	411.12
385.562	435.12
385.787	420.12
386.013	407.12
386.238	427.12
386.463	431.12
386.688	417.12
386.913	422.12
387.138	411.12
387.363	413.12
387.588	413.12
387.813	418.12
388.038	426.12
388.263	428.12
388.488	408.12
388.713	431.12
388.938	411.12
389.163	412.12
389.387	434.12
389.612	409.12
389.837	403.12
390.062	412.12
390.287	426.12
390.512	405.12
390.736	410.12
390.961	424.12
391.186	433.12
391.411	408.12
391.636	417.12
391.86	403.12
392.085	419.12
392.31	414.12
392.534	449.12
392.759	427.12
392.984	438.12
393.208	428.12
393.433	422.12
393.658	415.12
393.882	418.12
394.107	417.12
394.331	413.12
394.556	402.12
394.78	419.12
395.005	420.12
395.229	418.12
395.454	427.12
395.678	420.12
395.903	414.12
396.127	444.12
396.352	449.12
396.576	446.12
396.801	430.12
397.025	453.12
397.249	431.12
397.474	428.12
397.698	450.12
397.922	471.12
398.147	474.12
398.371	473.12
398.595	463.12
398.82	453.12
399.044	471.12
399.268	469.12
399.492	500.12
399.717	529.12
399.941	550.12
400.165	584.12
400.389	579.12
400.613	533.12
400.837	519.12
401.062	506.12
401.286	460.12
401.51	483.12
401.734	446.12
401.958	471.12
402.182	486.12
402.406	470.12
402.63	480.12
402.854	469.12
403.078	484.12
403.302	505.12
403.526	476.12
403.75	488.12
403.974	464.12
404.198	486.12
404.422	481.12
404.645	508.12
404.869	509.12
405.093	538.12
405.317	608.12
405.541	641.12
405.765	585.12
405.988	555.12
406.212	546.12
406.436	537.12
406.66	586.12
406.883	519.12
407.107	551.12
407.331	590.12
407.555	676.12
407.778	683.12
408.002	587.12
408.226	537.12
408.449	524.12
408.673	557.12
408.896	560.12
409.12	611.12
409.344	579.12
409.567	521.12
409.791	494.12
410.014	513.12
410.238	482.12
410.461	465.12
410.685	487.12
410.908	500.12
411.132	544.12
411.355	602.12
411.578	545.12
411.802	496.12
412.025	505.12
412.249	522.12
412.472	540.12
412.695	613.12
412.919	619.12
413.142	541.12
413.365	522.12
413.589	489.12
413.812	486.12
414.035	458.12
414.258	469.12
414.482	476.12
414.705	469.12
414.928	476.12
415.151	478.12
415.374	457.12
415.597	458.12
415.821	454.12
416.044	478.12
416.267	467.12
416.49	467.12
416.713	453.12
416.936	472.12
417.159	459.12
417.382	463.12
417.605	470.12
417.828	478.12
418.051	499.12
418.274	495.12
418.497	465.12
418.72	457.12
418.943	439.12
419.166	472.12
419.389	491.12
419.611	498.12
419.834	501.12
420.057	514.12
420.28	529.12
420.503	526.12
420.726	527.12
420.948	535.12
421.171	557.12
421.394	589.12
421.617	526.12
421.839	493.12
422.062	490.12
422.285	516.12
422.507	548.12
422.73	622.12
422.953	619.12
423.175	536.12
423.398	509.12
423.621	516.12
423.843	545.12
424.066	537.12
424.288	532.12
424.511	545.12
424.733	602.12
424.956	684.12
425.178	665.12
425.401	643.12
425.623	673.12
425.846	596.12
426.068	541.12
426.291	525.12
426.513	516.12
426.735	557.12
426.958	588.12
427.18	669.12
427.402	768.12
427.625	871.12
427.847	799.12
428.069	697.12
428.292	579.12
428.514	550.12
428.736	533.12
428.958	502.12
429.181	497.12
429.403	500.12
429.625	517.12
429.847	534.12
430.069	612.12
430.292	629.12
430.514	503.12
430.736	498.12
430.958	479.12
431.18	459.12
431.402	471.12
431.624	450.12
431.846	447.12
432.068	454.12
432.29	468.12
432.512	455.12
432.734	459.12
432.956	467.12
433.178	458.12
433.4	502.12
433.622	456.12
433.844	469.12
434.066	433.12
434.287	438.12
434.509	462.12
434.731	461.12
434.953	494.12
435.175	485.12
435.397	524.12
435.618	518.12
435.84	574.12
436.062	663.12
436.284	771.12
436.505	612.12
436.727	571.12
436.949	538.12
437.17	504.12
437.392	487.12
437.614	501.12
437.835	548.12
438.057	638.12
438.278	716.12
438.5	780.12
438.721	821.12
438.943	782.12
439.165	622.12
439.386	581.12
439.608	565.12
439.829	547.12
440.05	590.12
440.272	628.12
440.493	585.12
440.715	569.12
440.936	498.12
441.158	519.12
441.379	516.12
441.6	505.12
441.822	530.12
442.043	563.12
442.264	666.12
442.486	737.12
442.707	600.12
442.928	569.12
443.149	546.12
443.371	571.12
443.592	631.12
443.813	715.12
444.034	747.12
444.255	633.12
444.476	581.12
444.698	530.12
444.919	532.12
445.14	635.12
445.361	597.12
445.582	594.12
445.803	636.12
446.024	754.12
446.245	764.12
446.466	711.12
446.687	598.12
446.908	569.12
447.129	531.12
447.35	482.12
447.571	511.12
447.792	498.12
448.013	488.12
448.234	524.12
448.455	573.12
448.675	673.12
448.896	814.12
449.117	691.12
449.338	617.12
449.559	736.12
449.779	822.12
450	681.12
450.221	549.12
450.442	497.12
450.662	517.12
450.883	493.12
451.104	524.12
451.324	497.12
451.545	452.12
451.766	459.12
451.986	435.12
452.207	427.12
452.428	437.12
452.648	436.12
452.869	448.12
453.089	460.12
453.31	465.12
453.53	465.12
453.751	440.12
453.971	424.12
454.192	462.12
454.412	458.12
454.633	452.12
454.853	433.12
455.073	435.12
455.294	475.12
455.514	547.12
455.734	540.12
455.955	453.12
456.175	421.12
456.395	408.12
456.616	399.12
456.836	417.12
457.056	397.12
457.276	387.12
457.497	407.12
457.717	412.12
457.937	420.12
458.157	442.12
458.377	436.12
458.598	430.12
458.818	509.12
459.038	607.12
459.258	622.12
459.478	510.12
459.698	450.12
459.918	457.12
460.138	460.12
460.358	461.12
460.578	442.12
460.798	444.12
461.018	451.12
461.238	470.12
461.458	462.12
461.678	470.12
461.898	454.12
462.118	429.12
462.338	457.12
462.558	474.12
462.777	462.12
462.997	456.12
463.217	461.12
463.437	489.12
463.657	453.12
463.876	481.12
464.096	491.12
464.316	456.12
464.536	497.12
464.755	502.12
464.975	494.12
465.195	541.12
465.414	620.12
465.634	535.12
465.854	495.12
466.073	457.12
466.293	468.12
466.512	450.12
466.732	469.12
466.951	430.12
467.171	421.12
467.391	450.12
467.61	461.12
467.829	472.12
468.049	481.12
468.268	471.12
468.488	450.12
468.707	452.12
468.927	444.12
469.146	431.12
469.365	436.12
469.585	445.12
469.804	430.12
470.023	445.12
470.243	453.12
470.462	449.12
470.681	506.12
470.901	488.12
471.12	461.12
471.339	445.12
471.558	475.12
471.777	458.12
471.997	458.12
472.216	467.12
472.435	526.12
472.654	507.12
472.873	478.12
473.092	467.12
473.311	469.12
473.53	454.12
473.749	456.12
473.968	527.12
474.187	628.12
474.406	661.12
474.625	524.12
474.844	454.12
475.063	460.12
475.282	470.12
475.501	462.12
475.72	470.12
475.939	459.12
476.158	483.12
476.377	475.12
476.596	476.12
476.814	458.12
477.033	475.12
477.252	469.12
477.471	489.12
477.69	474.12
477.908	486.12
478.127	487.12
478.346	501.12
478.564	503.12
478.783	488.12
479.002	495.12
479.22	516.12
479.439	523.12
479.658	548.12
479.876	547.12
480.095	525.12
480.313	586.12
480.532	598.12
480.751	566.12
480.969	590.12
481.188	690.12
481.406	787.12
481.624	647.12
481.843	595.12
482.061	574.12
482.28	551.12
482.498	541.12
482.717	556.12
482.935	546.12
483.153	539.12
483.372	519.12
483.59	531.12
483.808	535.12
484.027	547.12
484.245	528.12
484.463	551.12
484.681	563.12
484.9	555.12
485.118	528.12
485.336	548.12
485.554	563.12
485.772	605.12
485.99	555.12
486.209	577.12
486.427	563.12
486.645	589.12
486.863	572.12
487.081	593.12
487.299	573.12
487.517	576.12
487.735	563.12
487.953	585.12
488.171	582.12
488.389	558.12
488.607	581.12
488.825	569.12
489.043	556.12
489.261	587.12
489.479	589.12
489.696	571.12
489.914	579.12
490.132	576.12
490.35	605.12
490.568	613.12
490.786	617.12
491.003	635.12
491.221	629.12
491.439	650.12
491.657	680.12
491.874	668.12
492.092	659.12
492.31	678.12
492.527	675.12
492.745	681.12
492.963	687.12
493.18	716.12
493.398	713.12
493.615	689.12
493.833	698.12
494.05	675.12
494.268	721.12
494.485	702.12
494.703	670.12
494.92	679.12
495.138	671.12
495.355	701.12
495.573	707.12
495.79	655.12
496.008	699.12
496.225	669.12
496.442	704.12
496.66	695.12
496.877	682.12
497.094	697.12
497.312	694.12
497.529	719.12
497.746	704.12
497.963	707.12
498.181	731.12
498.398	728.12
498.615	745.12
498.832	749.12
499.049	754.12
499.267	749.12
499.484	791.12
499.701	794.12
499.918	784.12
500.135	847.12
500.352	863.12
500.569	860.12
500.786	873.12
501.003	875.12
501.22	857.12
501.437	855.12
501.654	850.12
501.871	854.12
502.088	812.12
502.305	783.12
502.522	763.12
502.739	741.12
502.956	695.12
503.172	705.12
503.389	711.12
503.606	698.12
503.823	715.12
504.04	687.12
504.256	692.12
504.473	691.12
504.69	686.12
504.907	675.12
505.123	646.12
505.34	638.12
505.557	643.12
505.773	654.12
505.99	667.12
506.207	643.12
506.423	679.12
506.64	629.12
506.856	641.12
507.073	651.12
507.289	663.12
507.506	636.12
507.722	653.12
507.939	672.12
508.155	626.12
508.372	625.12
508.588	627.12
508.805	601.12
509.021	635.12
509.238	646.12
509.454	630.12
509.67	657.12
509.887	629.12
510.103	617.12
510.319	663.12
510.536	745.12
510.752	1279.12
510.968	1013.12
511.184	647.12
511.401	633.12
511.617	625.12
511.833	615.12
512.049	573.12
512.265	605.12
512.481	604.12
512.698	594.12
512.914	611.12
513.13	599.12
513.346	582.12
513.562	590.12
513.778	599.12
513.994	612.12
514.21	607.12
514.426	647.12
514.642	685.12
514.858	710.12
515.074	745.12
515.29	901.12
515.506	1363.12
515.721	1106.12
515.937	744.12
516.153	672.12
516.369	652.12
516.585	627.12
516.801	590.12
517.016	625.12
517.232	604.12
517.448	578.12
517.664	602.12
517.879	595.12
518.095	596.12
518.311	582.12
518.527	595.12
518.742	565.12
518.958	596.12
519.173	600.12
519.389	579.12
519.605	561.12
519.82	597.12
520.036	638.12
520.251	643.12
520.467	675.12
520.682	662.12
520.898	665.12
521.113	695.12
521.329	745.12
521.544	825.12
521.76	1100.12
521.975	1804.12
522.19	1777.12
522.406	941.12
522.621	725.12
522.836	643.12
523.052	598.12
523.267	558.12
523.482	531.12
523.698	539.12
523.913	569.12
524.128	526.12
524.343	553.12
524.559	531.12
524.774	504.12
524.989	512.12
525.204	530.12
525.419	541.12
525.634	537.12
525.849	530.12
526.064	477.12
526.28	492.12
526.495	490.12
526.71	478.12
526.925	480.12
527.14	503.12
527.355	498.12
527.57	467.12
527.785	473.12
527.999	497.12
528.214	477.12
528.429	472.12
528.644	483.12
528.859	490.12
529.074	502.12
529.289	520.12
529.503	594.12
529.718	578.12
529.933	516.12
530.148	513.12
530.363	494.12
530.577	452.12
530.792	484.12
531.007	454.12
531.221	474.12
531.436	468.12
531.651	480.12
531.865	454.12
532.08	454.12
532.295	453.12
532.509	447.12
532.724	455.12
532.938	447.12
533.153	444.12
533.367	445.12
533.582	439.12
533.796	456.12
534.011	440.12
534.225	429.12
534.44	456.12
534.654	443.12
534.868	446.12
535.083	446.12
535.297	456.12
535.511	443.12
535.726	454.12
535.94	464.12
536.154	437.12
536.369	425.12
536.583	442.12
536.797	433.12
537.011	435.12
537.225	411.12
537.44	433.12
537.654	415.12
537.868	420.12
538.082	423.12
538.296	421.12
538.51	443.12
538.724	453.12
538.938	424.12
539.153	424.12
539.367	438.12
539.581	440.12
539.795	421.12
540.009	437.12
540.222	410.12
540.436	445.12
540.65	428.12
540.864	434.12
541.078	458.12
541.292	428.12
541.506	439.12
541.72	431.12
541.934	452.12
542.147	438.12
542.361	434.12
542.575	422.12
542.789	427.12
543.002	426.12
543.216	444.12
543.43	460.12
543.644	427.12
543.857	420.12
544.071	419.12
544.285	430.12
544.498	407.12
544.712	441.12
544.925	411.12
545.139	417.12
545.352	417.12
545.566	402.12
545.779	409.12
545.993	415.12
546.206	406.12
546.42	426.12
546.633	416.12
546.847	422.12
547.06	420.12
547.274	399.12
547.487	397.12
547.7	418.12
547.914	393.12
548.127	401.12
548.34	415.12
548.554	412.12
548.767	417.12
548.98	402.12
549.193	409.12
549.407	380.12
549.62	399.12
549.833	387.12
550.046	387.12
550.259	398.12
550.473	402.12
550.686	421.12
550.899	387.12
551.112	388.12
551.325	400.12
551.538	400.12
551.751	400.12
551.964	393.12
552.177	394.12
552.39	413.12
552.603	397.12
552.816	387.12
553.029	413.12
553.242	419.12
553.455	404.12
553.667	426.12
553.88	416.12
554.093	401.12
554.306	425.12
554.519	397.12
554.732	386.12
554.944	403.12
555.157	393.12
555.37	389.12
555.583	395.12
555.795	383.12
556.008	387.12
556.221	363.12
556.433	389.12
556.646	371.12
556.859	362.12
557.071	379.12
557.284	356.12
557.496	361.12
557.709	375.12
557.921	362.12
558.134	355.12
558.346	371.12
558.559	362.12
558.771	377.12
558.984	360.12
559.196	348.12
559.409	354.12
559.621	374.12
559.833	355.12
560.046	368.12
560.258	358.12
560.47	362.12
560.683	351.12
560.895	367.12
561.107	348.12
561.32	358.12
561.532	356.12
561.744	354.12
561.956	353.12
562.168	341.12
562.381	378.12
562.593	363.12
562.805	381.12
563.017	369.12
563.229	353.12
563.441	360.12
563.653	366.12
563.865	354.12
564.077	360.12
564.289	377.12
564.501	377.12
564.713	369.12
564.925	387.12
565.137	375.12
565.349	377.12
565.561	385.12
565.773	397.12
565.985	388.12
566.197	385.12
566.408	419.12
566.62	397.12
566.832	398.12
567.044	402.12
567.255	411.12
567.467	415.12
567.679	424.12
567.891	407.12
568.102	415.12
568.314	424.12
568.526	417.12
568.737	406.12
568.949	390.12
569.161	376.12
569.372	374.12
569.584	380.12
569.795	366.12
570.007	357.12
570.218	408.12
570.43	403.12
570.641	352.12
570.853	358.12
571.064	364.12
571.276	338.12
571.487	351.12
571.698	349.12
571.91	341.12
572.121	338.12
572.333	325.12
572.544	315.12
572.755	322.12
572.966	325.12
573.178	336.12
573.389	323.12
573.6	327.12
573.811	330.12
574.023	334.12
574.234	336.12
574.445	306.12
574.656	305.12
574.867	329.12
575.078	325.12
575.289	313.12
575.501	319.12
575.712	293.12
575.923	314.12
576.134	296.12
576.345	326.12
576.556	316.12
576.767	307.12
576.978	303.12
577.188	306.12
577.399	285.12
577.61	298.12
577.821	301.12
578.032	300.12
578.243	361.12
578.454	574.12
578.665	442.12
578.875	322.12
579.086	297.12
579.297	302.12
579.508	313.12
579.718	297.12
579.929	290.12
580.14	302.12
580.35	287.12
580.561	291.12
580.772	311.12
580.982	297.12
581.193	292.12
581.403	302.12
581.614	290.12
581.825	298.12
582.035	289.12
582.246	286.12
582.456	280.12
582.667	284.12
582.877	292.12
583.087	288.12
583.298	298.12
583.508	294.12
583.719	283.12
583.929	273.12
584.139	285.12
584.35	293.12
584.56	284.12
584.77	268.12
584.981	288.12
585.191	291.12
585.401	265.12
585.611	284.12
585.821	287.12
586.032	264.12
586.242	299.12
586.452	271.12
586.662	275.12
586.872	272.12
587.082	250.12
587.292	274.12
587.502	276.12
587.713	274.12
587.923	307.12
588.133	274.12
588.343	268.12
588.553	267.12
588.762	249.12
588.972	259.12
589.182	261.12
589.392	265.12
589.602	270.12
589.812	292.12
590.022	290.12
590.232	270.12
590.441	266.12
590.651	266.12
590.861	255.12
591.071	281.12
591.281	272.12
591.49	292.12
591.7	277.12
591.91	281.12
592.119	269.12
592.329	278.12
592.539	294.12
592.748	302.12
592.958	281.12
593.167	285.12
593.377	277.12
593.587	276.12
593.796	289.12
594.006	291.12
594.215	280.12
594.424	255.12
594.634	273.12
594.843	260.12
595.053	273.12
595.262	271.12
595.472	287.12
595.681	268.12
595.89	261.12
596.1	253.12
596.309	273.12
596.518	250.12
596.727	260.12
596.937	252.12
597.146	264.12
597.355	250.12
597.564	252.12
597.774	272.12
597.983	241.12
598.192	249.12
598.401	247.12
598.61	252.12
598.819	261.12
599.028	254.12
599.237	252.12
599.446	245.12
599.655	228.12
599.864	269.12
600.073	241.12
600.282	246.12
600.491	247.12
600.7	248.12
600.909	241.12
601.118	238.12
601.327	249.12
601.536	238.12
601.745	234.12
601.953	241.12
602.162	230.12
602.371	221.12
602.58	256.12
602.789	230.12
602.997	227.12
603.206	245.12
603.415	240.12
603.623	240.12
603.832	223.12
604.041	230.12
604.249	235.12
604.458	245.12
604.666	247.12
604.875	249.12
605.084	228.12
605.292	252.12
605.501	227.12
605.709	241.12
605.918	224.12
606.126	222.12
606.334	223.12
606.543	235.12
606.751	242.12
606.96	223.12
607.168	220.12
607.376	232.12
607.585	227.12
607.793	231.12
608.001	220.12
608.21	214.12
608.418	242.12
608.626	229.12
608.834	226.12
609.043	225.12
609.251	231.12
609.459	216.12
609.667	217.12
609.875	217.12
610.083	230.12
610.291	219.12
610.499	248.12
610.707	211.12
610.916	224.12
611.124	236.12
611.332	254.12
611.54	235.12
611.748	228.12
611.955	228.12
612.163	227.12
612.371	220.12
612.579	234.12
612.787	218.12
612.995	238.12
613.203	236.12
613.411	221.12
613.618	222.12
613.826	239.12
614.034	214.12
614.242	210.12
614.449	229.12
614.657	213.12
614.865	202.12
615.072	221.12
615.28	218.12
615.488	215.12
615.695	229.12
615.903	203.12
616.111	213.12
616.318	205.12
616.526	219.12
616.733	225.12
616.941	213.12
617.148	226.12
617.356	200.12
617.563	197.12
617.771	200.12
617.978	208.12
618.185	225.12
618.393	219.12
618.6	214.12
618.807	214.12
619.015	221.12
619.222	233.12
619.429	229.12
619.637	213.12
619.844	213.12
620.051	215.12
620.258	209.12
620.466	222.12
620.673	212.12
620.88	210.12
621.087	214.12
621.294	222.12
621.501	214.12
621.708	210.12
621.915	226.12
622.122	198.12
622.329	203.12
622.536	201.12
622.743	214.12
622.95	210.12
623.157	215.12
623.364	204.12
623.571	207.12
623.778	200.12
623.985	213.12
624.192	206.12
624.399	207.12
624.606	205.12
624.812	203.12
625.019	216.12
625.226	196.12
625.433	194.12
625.639	185.12
625.846	188.12
626.053	201.12
626.259	194.12
626.466	187.12
626.673	184.12
626.879	198.12
627.086	204.12
627.293	202.12
627.499	195.12
627.706	200.12
627.912	186.12
628.119	205.12
628.325	207.12
628.532	196.12
628.738	197.12
628.945	181.12
629.151	197.12
629.357	179.12
629.564	186.12
629.77	183.12
629.976	189.12
630.183	187.12
630.389	177.12
630.595	170.12
630.802	195.12
631.008	190.12
631.214	170.12
631.42	189.12
631.627	179.12
631.833	179.12
632.039	190.12
632.245	181.12
632.451	171.12
632.657	186.12
632.863	198.12
633.069	185.12
633.275	197.12
633.481	180.12
633.688	173.12
633.893	189.12
634.099	188.12
634.305	182.12
634.511	165.12
634.717	177.12
634.923	170.12
635.129	179.12
635.335	196.12
635.541	170.12
635.747	186.12
635.952	178.12
636.158	175.12
636.364	169.12
636.57	179.12
636.775	195.12
636.981	181.12
637.187	178.12
637.392	166.12
637.598	171.12
637.804	181.12
638.009	182.12
638.215	173.12
638.421	165.12
638.626	161.12
638.832	174.12
639.037	190.12
639.243	179.12
639.448	178.12
639.654	180.12
639.859	158.12
640.065	152.12
640.27	162.12
640.475	164.12
640.681	178.12
640.886	154.12
641.091	178.12
641.297	182.12
641.502	161.12
641.707	172.12
641.913	156.12
642.118	165.12
642.323	164.12
642.528	167.12
642.733	182.12
642.939	169.12
643.144	157.12
643.349	150.12
643.554	161.12
643.759	168.12
643.964	171.12
644.169	180.12
644.374	153.12
644.579	158.12
644.784	150.12
644.989	161.12
645.194	166.12
645.399	161.12
645.604	153.12
645.809	145.12
646.014	167.12
646.219	153.12
646.423	155.12
646.628	155.12
646.833	154.12
647.038	157.12
647.243	160.12
647.447	166.12
647.652	183.12
647.857	154.12
648.062	162.12
648.266	167.12
648.471	172.12
648.676	144.12
648.88	169.12
649.085	154.12
649.289	173.12
649.494	163.12
649.698	180.12
649.903	177.12
650.107	175.12
650.312	163.12
650.516	149.12
650.721	150.12
650.925	148.12
651.13	132.12
651.334	159.12
651.539	157.12
651.743	141.12
651.947	141.12
652.152	130.12
652.356	151.12
652.56	126.12
652.764	128.12
652.969	131.12
653.173	120.12
653.377	139.12
653.581	134.12
653.785	139.12
653.99	135.12
654.194	119.12
654.398	131.12
654.602	127.12
654.806	132.12
655.01	135.12
655.214	116.12
655.418	134.12
655.622	121.12
655.826	139.12
656.03	139.12
656.234	135.12
656.438	136.12
656.642	137.12
656.846	143.12
657.049	122.12
657.253	135.12
657.457	129.12
657.661	135.12
657.865	129.12
658.068	117.12
658.272	107.12
658.476	124.12
658.68	121.12
658.883	105.12
659.087	114.12
659.291	101.12
659.494	104.12
659.698	103.12
659.901	108.12
660.105	110.12
660.309	102.12
660.512	95.12
660.716	94.12
660.919	96.12
661.123	92.12
661.326	98.12
661.53	109.12
661.733	81.12
661.936	78.12
662.14	83.12
662.343	86.12
662.546	81.12
662.75	93.12
662.953	81.12
663.156	97.12
663.36	91.12
663.563	91.12
663.766	80.12
663.969	80.12
664.173	72.12
664.376	79.12
664.579	107.12
664.782	87.12
664.985	78.12
665.188	82.12
665.391	99.12
665.594	79.12
665.797	84.12
666	84.12
666.203	90.12
666.406	71.12
666.609	91.12
666.812	90.12
667.015	72.12
667.218	80.12
667.421	82.12
667.624	90.12
667.827	70.12
668.03	90.12
668.232	94.12
668.435	90.12
668.638	103.12
668.841	84.12
669.043	71.12
669.246	68.12
669.449	86.12
669.651	93.12
669.854	80.12
670.057	83.12
670.259	82.12
670.462	92.12
670.665	89.12
670.867	85.12
671.07	95.12
671.272	99.12
671.475	88.12
671.677	76.12
671.88	82.12
672.082	83.12
672.284	87.12
672.487	92.12
672.689	74.12
672.892	78.12
