Data from 1989.PennyLincolnUp.Lamp.En5.5.200Scan.071819.P2_HRD10591_17-24-15-973.txt Node
Date: Thu Jul 18 17:24:15 EDT 2019
User: cochatt
Spectrometer: HR+D1059
Trigger mode: 1
Integration Time (sec): 1.000000E-1
Scans to average: 1
Electric dark correction enabled: true
Nonlinearity correction enabled: false
Boxcar width: 0
XAxis mode: Wavelengths
Number of Pixels in Spectrum: 2048
>>>>>Begin Spectral Data<<<<<
223.165	-17
223.4	-17
223.635	-17
223.869	-29
224.104	-23
224.338	-18
224.573	-19
224.808	-9
225.042	-6
225.277	-7
225.511	2
225.746	10
225.98	7
226.215	6
226.449	26
226.683	19
226.918	25
227.152	33
227.387	35
227.621	46
227.856	35
228.09	57
228.324	61
228.559	52
228.793	75
229.027	99
229.262	110
229.496	128
229.73	137
229.964	151
230.199	124
230.433	127
230.667	131
230.901	122
231.136	119
231.37	98
231.604	114
231.838	117
232.072	103
232.306	106
232.541	122
232.775	109
233.009	125
233.243	109
233.477	126
233.711	148
233.945	131
234.179	124
234.413	140
234.647	114
234.881	120
235.115	123
235.349	123
235.583	132
235.817	130
236.051	135
236.285	136
236.519	151
236.753	138
236.987	155
237.221	198
237.455	245
237.689	200
237.922	148
238.156	142
238.39	138
238.624	137
238.858	139
239.091	124
239.325	140
239.559	147
239.793	139
240.027	130
240.26	146
240.494	151
240.728	151
240.961	150
241.195	154
241.429	155
241.662	151
241.896	146
242.13	133
242.363	140
242.597	151
242.83	137
243.064	147
243.298	145
243.531	148
243.765	145
243.998	147
244.232	152
244.465	161
244.699	151
244.932	144
245.166	163
245.399	174
245.633	155
245.866	158
246.099	154
246.333	151
246.566	159
246.8	170
247.033	160
247.266	163
247.5	187
247.733	177
247.966	173
248.2	196
248.433	198
248.666	185
248.899	199
249.133	207
249.366	220
249.599	206
249.832	198
250.066	197
250.299	196
250.532	210
250.765	222
250.998	227
251.231	231
251.465	239
251.698	221
251.931	224
252.164	224
252.397	221
252.63	236
252.863	218
253.096	230
253.329	258
253.562	239
253.795	245
254.028	242
254.261	234
254.494	238
254.727	271
254.96	311
255.193	306
255.426	273
255.659	246
255.892	246
256.124	234
256.357	254
256.59	264
256.823	237
257.056	228
257.289	229
257.521	219
257.754	238
257.987	242
258.22	223
258.452	218
258.685	217
258.918	226
259.151	240
259.383	227
259.616	232
259.849	241
260.081	242
260.314	276
260.547	292
260.779	252
261.012	253
261.244	254
261.477	225
261.71	234
261.942	262
262.175	252
262.407	246
262.64	247
262.872	242
263.105	234
263.337	232
263.57	240
263.802	231
264.035	229
264.267	232
264.499	233
264.732	216
264.964	232
265.197	229
265.429	236
265.661	210
265.894	215
266.126	219
266.358	233
266.591	238
266.823	237
267.055	246
267.287	249
267.52	242
267.752	247
267.984	240
268.216	245
268.448	257
268.681	239
268.913	258
269.145	284
269.377	302
269.609	311
269.841	277
270.073	294
270.306	315
270.538	330
270.77	359
271.002	339
271.234	314
271.466	320
271.698	340
271.93	341
272.162	352
272.394	362
272.626	334
272.858	315
273.09	329
273.322	293
273.553	299
273.785	301
274.017	288
274.249	287
274.481	282
274.713	293
274.945	282
275.176	284
275.408	297
275.64	289
275.872	280
276.104	273
276.335	293
276.567	290
276.799	295
277.031	307
277.262	338
277.494	350
277.726	322
277.957	313
278.189	306
278.421	291
278.652	289
278.884	301
279.115	291
279.347	289
279.579	260
279.81	266
280.042	281
280.273	281
280.505	283
280.736	296
280.968	294
281.199	276
281.431	278
281.662	287
281.894	281
282.125	277
282.356	300
282.588	316
282.819	334
283.051	297
283.282	294
283.513	306
283.745	294
283.976	304
284.207	298
284.439	302
284.67	289
284.901	287
285.132	295
285.364	295
285.595	310
285.826	290
286.057	291
286.288	303
286.52	314
286.751	300
286.982	295
287.213	321
287.444	283
287.675	310
287.906	331
288.138	323
288.369	325
288.6	331
288.831	304
289.062	302
289.293	310
289.524	287
289.755	313
289.986	303
290.217	302
290.448	289
290.679	318
290.91	309
291.141	300
291.371	307
291.602	302
291.833	316
292.064	319
292.295	295
292.526	296
292.757	307
292.987	317
293.218	304
293.449	287
293.68	317
293.91	313
294.141	297
294.372	316
294.603	286
294.833	323
295.064	302
295.295	312
295.525	320
295.756	318
295.987	311
296.217	347
296.448	336
296.679	330
296.909	293
297.14	316
297.37	332
297.601	327
297.831	299
298.062	293
298.292	324
298.523	332
298.753	327
298.984	318
299.214	317
299.445	331
299.675	314
299.905	323
300.136	343
300.366	306
300.597	327
300.827	327
301.057	346
301.288	352
301.518	346
301.748	361
301.979	348
302.209	345
302.439	348
302.669	329
302.9	332
303.13	331
303.36	350
303.59	345
303.82	354
304.051	350
304.281	335
304.511	345
304.741	333
304.971	333
305.201	343
305.431	339
305.661	339
305.891	326
306.121	331
306.352	338
306.582	337
306.812	354
307.042	351
307.272	351
307.502	352
307.731	344
307.961	349
308.191	343
308.421	357
308.651	348
308.881	352
309.111	369
309.341	343
309.571	377
309.8	365
310.03	389
310.26	404
310.49	407
310.72	402
310.949	418
311.179	417
311.409	390
311.639	397
311.868	386
312.098	395
312.328	403
312.557	416
312.787	434
313.017	430
313.246	411
313.476	380
313.706	401
313.935	396
314.165	406
314.394	422
314.624	439
314.853	420
315.083	393
315.312	383
315.542	419
315.771	403
316.001	374
316.23	408
316.46	385
316.689	394
316.919	402
317.148	415
317.377	415
317.607	400
317.836	413
318.065	391
318.295	385
318.524	393
318.753	413
318.983	371
319.212	407
319.441	399
319.67	407
319.9	404
320.129	398
320.358	403
320.587	413
320.816	425
321.046	418
321.275	409
321.504	434
321.733	442
321.962	427
322.191	437
322.42	475
322.649	475
322.878	463
323.108	491
323.337	498
323.566	549
323.795	570
324.024	635
324.253	742
324.482	1093
324.71	1656
324.939	2399
325.168	2041
325.397	1119
325.626	717
325.855	616
326.084	565
326.313	547
326.542	558
326.77	603
326.999	709
327.228	991
327.457	1437
327.686	1797
327.914	1226
328.143	772
328.372	678
328.6	636
328.829	619
329.058	630
329.287	596
329.515	588
329.744	511
329.972	513
330.201	515
330.43	570
330.658	589
330.887	660
331.115	618
331.344	550
331.572	510
331.801	515
332.03	534
332.258	484
332.486	476
332.715	454
332.943	462
333.172	476
333.4	480
333.629	459
333.857	490
334.085	464
334.314	457
334.542	484
334.771	477
334.999	481
335.227	463
335.455	457
335.684	475
335.912	454
336.14	451
336.369	448
336.597	480
336.825	445
337.053	432
337.281	437
337.51	424
337.738	437
337.966	448
338.194	460
338.422	458
338.65	453
338.878	447
339.106	440
339.334	431
339.562	442
339.79	447
340.018	445
340.246	439
340.474	441
340.702	445
340.93	452
341.158	438
341.386	453
341.614	437
341.842	441
342.07	446
342.298	431
342.526	444
342.754	430
342.981	414
343.209	426
343.437	437
343.665	437
343.893	430
344.12	432
344.348	433
344.576	448
344.804	443
345.031	473
345.259	467
345.487	439
345.714	448
345.942	417
346.17	417
346.397	431
346.625	423
346.853	413
347.08	417
347.308	434
347.535	444
347.763	441
347.99	434
348.218	449
348.445	428
348.673	420
348.9	432
349.128	428
349.355	400
349.583	394
349.81	407
350.037	426
350.265	417
350.492	428
350.72	418
350.947	420
351.174	441
351.402	420
351.629	434
351.856	439
352.083	428
352.311	430
352.538	443
352.765	427
352.992	410
353.22	403
353.447	429
353.674	411
353.901	385
354.128	401
354.355	413
354.583	412
354.81	391
355.037	379
355.264	381
355.491	393
355.718	381
355.945	381
356.172	361
356.399	383
356.626	385
356.853	384
357.08	389
357.307	407
357.534	391
357.761	390
357.988	391
358.215	376
358.441	404
358.668	419
358.895	401
359.122	398
359.349	405
359.576	423
359.802	454
360.029	477
360.256	476
360.483	467
360.709	445
360.936	438
361.163	424
361.39	404
361.616	417
361.843	409
362.07	429
362.296	432
362.523	409
362.749	415
362.976	423
363.203	400
363.429	377
363.656	399
363.882	387
364.109	382
364.335	382
364.562	410
364.788	404
365.015	376
365.241	384
365.468	409
365.694	399
365.92	415
366.147	397
366.373	379
366.599	397
366.826	390
367.052	376
367.278	401
367.505	386
367.731	409
367.957	407
368.184	394
368.41	391
368.636	405
368.862	421
369.089	401
369.315	399
369.541	385
369.767	401
369.993	385
370.219	379
370.445	392
370.672	377
370.898	384
371.124	393
371.35	389
371.576	388
371.802	393
372.028	394
372.254	389
372.48	387
372.706	396
372.932	394
373.158	393
373.384	387
373.61	380
373.835	377
374.061	373
374.287	384
374.513	397
374.739	403
374.965	386
375.191	384
375.416	389
375.642	386
375.868	405
376.094	383
376.319	385
376.545	388
376.771	379
376.997	387
377.222	385
377.448	375
377.674	385
377.899	373
378.125	376
378.35	388
378.576	390
378.802	387
379.027	387
379.253	379
379.478	385
379.704	381
379.929	403
380.155	391
380.38	366
380.606	381
380.831	396
381.057	378
381.282	377
381.507	398
381.733	374
381.958	388
382.184	388
382.409	385
382.634	396
382.86	360
383.085	385
383.31	391
383.535	395
383.761	404
383.986	391
384.211	399
384.436	410
384.662	393
384.887	429
385.112	396
385.337	397
385.562	386
385.787	409
386.013	406
386.238	407
386.463	403
386.688	419
386.913	408
387.138	395
387.363	409
387.588	419
387.813	394
388.038	387
388.263	402
388.488	391
388.713	398
388.938	413
389.163	413
389.387	415
389.612	399
389.837	402
390.062	418
390.287	402
390.512	411
390.736	392
390.961	401
391.186	407
391.411	404
391.636	404
391.86	402
392.085	403
392.31	428
392.534	400
392.759	410
392.984	415
393.208	427
393.433	403
393.658	406
393.882	401
394.107	398
394.331	393
394.556	417
394.78	401
395.005	400
395.229	399
395.454	390
395.678	412
395.903	414
396.127	453
396.352	437
396.576	414
396.801	413
397.025	420
397.249	414
397.474	401
397.698	427
397.922	453
398.147	440
398.371	453
398.595	451
398.82	455
399.044	450
399.268	463
399.492	471
399.717	496
399.941	504
400.165	559
400.389	557
400.613	524
400.837	484
401.062	477
401.286	450
401.51	474
401.734	466
401.958	461
402.182	460
402.406	475
402.63	487
402.854	471
403.078	460
403.302	459
403.526	477
403.75	474
403.974	468
404.198	444
404.422	460
404.645	470
404.869	461
405.093	483
405.317	525
405.541	544
405.765	514
405.988	483
406.212	507
406.436	524
406.66	531
406.883	515
407.107	509
407.331	578
407.555	635
407.778	622
408.002	593
408.226	545
408.449	505
408.673	531
408.896	539
409.12	574
409.344	541
409.567	498
409.791	483
410.014	479
410.238	473
410.461	479
410.685	475
410.908	486
411.132	531
411.355	569
411.578	526
411.802	485
412.025	479
412.249	449
412.472	460
412.695	465
412.919	466
413.142	470
413.365	422
413.589	458
413.812	433
414.035	457
414.258	447
414.482	423
414.705	414
414.928	422
415.151	442
415.374	440
415.597	443
415.821	454
416.044	461
416.267	450
416.49	434
416.713	422
416.936	430
417.159	425
417.382	429
417.605	446
417.828	465
418.051	474
418.274	460
418.497	448
418.72	450
418.943	439
419.166	457
419.389	454
419.611	461
419.834	459
420.057	463
420.28	475
420.503	455
420.726	458
420.948	453
421.171	507
421.394	552
421.617	483
421.839	459
422.062	471
422.285	503
422.507	524
422.73	600
422.953	599
423.175	521
423.398	510
423.621	480
423.843	490
424.066	492
424.288	515
424.511	521
424.733	575
424.956	642
425.178	641
425.401	628
425.623	641
425.846	571
426.068	527
426.291	493
426.513	509
426.735	505
426.958	559
427.18	639
427.402	752
427.625	833
427.847	741
428.069	612
428.292	567
428.514	494
428.736	487
428.958	493
429.181	479
429.403	456
429.625	465
429.847	492
430.069	574
430.292	577
430.514	466
430.736	453
430.958	461
431.18	458
431.402	459
431.624	413
431.846	426
432.068	415
432.29	446
432.512	451
432.734	459
432.956	453
433.178	446
433.4	463
433.622	452
433.844	417
434.066	434
434.287	435
434.509	455
434.731	443
434.953	467
435.175	475
435.397	494
435.618	495
435.84	535
436.062	638
436.284	692
436.505	594
436.727	521
436.949	482
437.17	484
437.392	479
437.614	473
437.835	530
438.057	621
438.278	698
438.5	707
438.721	782
438.943	736
439.165	575
439.386	539
439.608	537
439.829	530
440.05	565
440.272	579
440.493	553
440.715	519
440.936	479
441.158	479
441.379	473
441.6	496
441.822	506
442.043	523
442.264	652
442.486	663
442.707	579
442.928	543
443.149	544
443.371	581
443.592	593
443.813	686
444.034	716
444.255	602
444.476	539
444.698	521
444.919	508
445.14	605
445.361	567
445.582	563
445.803	604
446.024	733
446.245	731
446.466	645
446.687	565
446.908	529
447.129	491
447.35	494
447.571	464
447.792	453
448.013	473
448.234	522
448.455	559
448.675	681
448.896	755
449.117	641
449.338	618
449.559	709
449.779	823
450	650
450.221	547
450.442	509
450.662	475
450.883	471
451.104	498
451.324	472
451.545	474
451.766	439
451.986	408
452.207	415
452.428	432
452.648	433
452.869	423
453.089	445
453.31	481
453.53	442
453.751	439
453.971	418
454.192	427
454.412	434
454.633	426
454.853	424
455.073	424
455.294	448
455.514	518
455.734	501
455.955	440
456.175	403
456.395	393
456.616	390
456.836	398
457.056	391
457.276	387
457.497	410
457.717	414
457.937	401
458.157	413
458.377	402
458.598	433
458.818	494
459.038	582
459.258	577
459.478	500
459.698	441
459.918	434
460.138	439
460.358	430
460.578	441
460.798	436
461.018	426
461.238	417
461.458	440
461.678	438
461.898	451
462.118	447
462.338	439
462.558	451
462.777	471
462.997	461
463.217	467
463.437	458
463.657	449
463.876	472
464.096	441
464.316	443
464.536	466
464.755	470
464.975	461
465.195	542
465.414	605
465.634	538
465.854	483
466.073	466
466.293	442
466.512	424
466.732	432
466.951	419
467.171	439
467.391	421
467.61	441
467.829	442
468.049	427
468.268	429
468.488	409
468.707	420
468.927	409
469.146	417
469.365	416
469.585	423
469.804	422
470.023	423
470.243	437
470.462	429
470.681	450
470.901	451
471.12	422
471.339	430
471.558	443
471.777	421
471.997	414
472.216	434
472.435	414
472.654	426
472.873	429
473.092	441
473.311	435
473.53	437
473.749	447
473.968	486
474.187	586
474.406	590
474.625	505
474.844	466
475.063	446
475.282	439
475.501	450
475.72	430
475.939	459
476.158	418
476.377	445
476.596	431
476.814	445
477.033	450
477.252	462
477.471	445
477.69	480
477.908	472
478.127	462
478.346	456
478.564	468
478.783	462
479.002	478
479.22	479
479.439	505
479.658	525
479.876	499
480.095	490
480.313	570
480.532	524
480.751	526
480.969	518
481.188	541
481.406	526
481.624	517
481.843	517
482.061	530
482.28	523
482.498	507
482.717	498
482.935	512
483.153	491
483.372	488
483.59	496
483.808	480
484.027	502
484.245	501
484.463	519
484.681	524
484.9	501
485.118	505
485.336	530
485.554	523
485.772	524
485.99	529
486.209	528
486.427	525
486.645	542
486.863	541
487.081	550
487.299	547
487.517	535
487.735	530
487.953	534
488.171	554
488.389	528
488.607	556
488.825	543
489.043	545
489.261	578
489.479	562
489.696	549
489.914	545
490.132	548
490.35	589
490.568	560
490.786	556
491.003	581
491.221	585
491.439	597
491.657	609
491.874	616
492.092	619
492.31	617
492.527	613
492.745	616
492.963	612
493.18	655
493.398	612
493.615	625
493.833	615
494.05	625
494.268	625
494.485	613
494.703	651
494.92	639
495.138	643
495.355	642
495.573	634
495.79	622
496.008	633
496.225	638
496.442	635
496.66	636
496.877	651
497.094	643
497.312	648
497.529	650
497.746	672
497.963	676
498.181	711
498.398	704
498.615	705
498.832	716
499.049	725
499.267	732
499.484	736
499.701	747
499.918	765
500.135	789
500.352	824
500.569	858
500.786	849
501.003	813
501.22	811
501.437	797
501.654	791
501.871	813
502.088	778
502.305	739
502.522	687
502.739	697
502.956	682
503.172	673
503.389	659
503.606	683
503.823	683
504.04	669
504.256	667
504.473	638
504.69	635
504.907	639
505.123	649
505.34	636
505.557	619
505.773	633
505.99	631
506.207	638
506.423	615
506.64	599
506.856	599
507.073	608
507.289	627
507.506	625
507.722	644
507.939	660
508.155	616
508.372	597
508.588	592
508.805	591
509.021	578
509.238	608
509.454	604
509.67	606
509.887	582
510.103	623
510.319	630
510.536	713
510.752	1246
510.968	1000
511.184	642
511.401	586
511.617	569
511.833	581
512.049	560
512.265	577
512.481	591
512.698	574
512.914	565
513.13	549
513.346	555
513.562	561
513.778	583
513.994	592
514.21	571
514.426	610
514.642	647
514.858	721
515.074	723
515.29	909
515.506	1369
515.721	1105
515.937	742
516.153	651
516.369	624
516.585	600
516.801	579
517.016	590
517.232	574
517.448	578
517.664	568
517.879	569
518.095	573
518.311	578
518.527	580
518.742	567
518.958	573
519.173	581
519.389	575
519.605	557
519.82	561
520.036	587
520.251	617
520.467	649
520.682	643
520.898	635
521.113	659
521.329	718
521.544	809
521.76	1067
521.975	1829
522.19	1739
522.406	923
522.621	687
522.836	612
523.052	555
523.267	545
523.482	538
523.698	529
523.913	514
524.128	531
524.343	506
524.559	527
524.774	517
524.989	492
525.204	524
525.419	518
525.634	485
525.849	486
526.064	489
526.28	477
526.495	478
526.71	469
526.925	468
527.14	461
527.355	469
527.57	459
527.785	457
527.999	485
528.214	444
528.429	437
528.644	473
528.859	461
529.074	473
529.289	473
529.503	590
529.718	541
529.933	503
530.148	482
530.363	479
530.577	462
530.792	448
531.007	451
531.221	458
531.436	427
531.651	431
531.865	435
532.08	435
532.295	428
532.509	447
532.724	435
532.938	456
533.153	452
533.367	432
533.582	427
533.796	441
534.011	410
534.225	427
534.44	438
534.654	412
534.868	434
535.083	421
535.297	437
535.511	437
535.726	455
535.94	441
536.154	452
536.369	424
536.583	427
536.797	415
537.011	406
537.225	408
537.44	416
537.654	425
537.868	404
538.082	408
538.296	441
538.51	415
538.724	429
538.938	391
539.153	426
539.367	447
539.581	424
539.795	428
540.009	429
540.222	424
540.436	425
540.65	423
540.864	428
541.078	439
541.292	435
541.506	437
541.72	446
541.934	411
542.147	419
542.361	417
542.575	419
542.789	415
543.002	419
543.216	403
543.43	417
543.644	441
543.857	441
544.071	435
544.285	413
544.498	395
544.712	413
544.925	428
545.139	421
545.352	397
545.566	406
545.779	410
545.993	400
546.206	414
546.42	415
546.633	402
546.847	387
547.06	403
547.274	396
547.487	399
547.7	399
547.914	410
548.127	375
548.34	398
548.554	382
548.767	405
548.98	381
549.193	401
549.407	383
549.62	384
549.833	379
550.046	396
550.259	387
550.473	390
550.686	398
550.899	411
551.112	384
551.325	367
551.538	397
551.751	386
551.964	391
552.177	397
552.39	404
552.603	377
552.816	412
553.029	377
553.242	396
553.455	401
553.667	400
553.88	406
554.093	413
554.306	404
554.519	415
554.732	392
554.944	408
555.157	369
555.37	378
555.583	386
555.795	391
556.008	378
556.221	389
556.433	374
556.646	361
556.859	380
557.071	378
557.284	353
557.496	362
557.709	348
557.921	352
558.134	376
558.346	366
558.559	373
558.771	351
558.984	362
559.196	350
559.409	369
559.621	349
559.833	347
560.046	357
560.258	341
560.47	350
560.683	370
560.895	336
561.107	342
561.32	345
561.532	368
561.744	358
561.956	349
562.168	329
562.381	343
562.593	360
562.805	366
563.017	369
563.229	347
563.441	377
563.653	367
563.865	361
564.077	366
564.289	354
564.501	357
564.713	351
564.925	351
565.137	378
565.349	394
565.561	387
565.773	383
565.985	375
566.197	389
566.408	393
566.62	389
566.832	399
567.044	423
567.255	410
567.467	409
567.679	413
567.891	403
568.102	408
568.314	410
568.526	417
568.737	379
568.949	396
569.161	377
569.372	341
569.584	341
569.795	364
570.007	357
570.218	402
570.43	391
570.641	354
570.853	351
571.064	354
571.276	338
571.487	328
571.698	322
571.91	335
572.121	315
572.333	323
572.544	326
572.755	329
572.966	297
573.178	301
573.389	315
573.6	315
573.811	315
574.023	302
574.234	319
574.445	305
574.656	313
574.867	302
575.078	306
575.289	307
575.501	315
575.712	318
575.923	304
576.134	305
576.345	297
576.556	294
576.767	302
576.978	293
577.188	311
577.399	317
577.61	285
577.821	283
578.032	301
578.243	340
578.454	569
578.665	432
578.875	322
579.086	297
579.297	297
579.508	292
579.718	305
579.929	307
580.14	302
580.35	276
580.561	297
580.772	287
580.982	290
581.193	287
581.403	272
581.614	299
581.825	288
582.035	284
582.246	291
582.456	282
582.667	285
582.877	276
583.087	276
583.298	286
583.508	286
583.719	295
583.929	290
584.139	284
584.35	282
584.56	281
584.77	263
584.981	295
585.191	268
585.401	279
585.611	263
585.821	282
586.032	266
586.242	257
586.452	276
586.662	272
586.872	283
587.082	264
587.292	251
587.502	264
587.713	267
587.923	287
588.133	279
588.343	286
588.553	264
588.762	272
588.972	265
589.182	272
589.392	270
589.602	297
589.812	298
590.022	289
590.232	270
590.441	275
590.651	282
590.861	283
591.071	269
591.281	279
591.49	264
591.7	277
591.91	266
592.119	259
592.329	274
592.539	282
592.748	290
592.958	276
593.167	270
593.377	265
593.587	287
593.796	283
594.006	267
594.215	282
594.424	276
594.634	283
594.843	284
595.053	285
595.262	272
595.472	270
595.681	275
595.89	270
596.1	277
596.309	250
596.518	240
596.727	262
596.937	248
597.146	249
597.355	252
597.564	263
597.774	245
597.983	239
598.192	259
598.401	255
598.61	256
598.819	219
599.028	249
599.237	236
599.446	229
599.655	228
599.864	247
600.073	231
600.282	253
600.491	245
600.7	248
600.909	229
601.118	255
601.327	243
601.536	239
601.745	231
601.953	241
602.162	221
602.371	257
602.58	221
602.789	237
602.997	230
603.206	236
603.415	239
603.623	233
603.832	222
604.041	230
604.249	228
604.458	227
604.666	227
604.875	223
605.084	238
605.292	240
605.501	222
605.709	230
605.918	232
606.126	230
606.334	232
606.543	227
606.751	226
606.96	241
607.168	209
607.376	227
607.585	225
607.793	249
608.001	242
608.21	234
608.418	229
608.626	221
608.834	221
609.043	220
609.251	231
609.459	217
609.667	225
609.875	227
610.083	218
610.291	241
610.499	226
610.707	218
610.916	226
611.124	232
611.332	226
611.54	233
611.748	229
611.955	220
612.163	215
612.371	217
612.579	223
612.787	234
612.995	224
613.203	220
613.411	216
613.618	227
613.826	211
614.034	240
614.242	205
614.449	210
614.657	199
614.865	218
615.072	226
615.28	199
615.488	223
615.695	198
615.903	213
616.111	224
616.318	239
616.526	216
616.733	215
616.941	202
617.148	223
617.356	209
617.563	217
617.771	219
617.978	206
618.185	217
618.393	215
618.6	222
618.807	208
619.015	227
619.222	213
619.429	212
619.637	225
619.844	198
620.051	202
620.258	208
620.466	214
620.673	209
620.88	210
621.087	210
621.294	215
621.501	199
621.708	211
621.915	199
622.122	206
622.329	224
622.536	207
622.743	194
622.95	207
623.157	202
623.364	194
623.571	205
623.778	211
623.985	213
624.192	192
624.399	204
624.606	211
624.812	214
625.019	206
625.226	199
625.433	201
625.639	187
625.846	199
626.053	195
626.259	199
626.466	193
626.673	206
626.879	193
627.086	215
627.293	195
627.499	196
627.706	186
627.912	190
628.119	181
628.325	188
628.532	176
628.738	192
628.945	179
629.151	198
629.357	187
629.564	190
629.77	166
629.976	183
630.183	205
630.389	180
630.595	195
630.802	191
631.008	185
631.214	187
631.42	185
631.627	175
631.833	203
632.039	177
632.245	183
632.451	179
632.657	171
632.863	178
633.069	178
633.275	179
633.481	181
633.688	187
633.893	181
634.099	187
634.305	183
634.511	176
634.717	153
634.923	172
635.129	160
635.335	172
635.541	169
635.747	159
635.952	170
636.158	175
636.364	173
636.57	171
636.775	173
636.981	169
637.187	173
637.392	173
637.598	166
637.804	174
638.009	152
638.215	174
638.421	165
638.626	160
638.832	172
639.037	161
639.243	169
639.448	178
639.654	175
639.859	161
640.065	167
640.27	171
640.475	173
640.681	155
640.886	150
641.091	167
641.297	155
641.502	176
641.707	178
641.913	165
642.118	166
642.323	152
642.528	181
642.733	174
642.939	178
643.144	171
643.349	155
643.554	184
643.759	154
643.964	148
644.169	168
644.374	143
644.579	158
644.784	161
644.989	162
645.194	145
645.399	171
645.604	144
645.809	150
646.014	153
646.219	142
646.423	151
646.628	157
646.833	162
647.038	163
647.243	159
647.447	171
647.652	166
647.857	153
648.062	154
648.266	161
648.471	160
648.676	170
648.88	170
649.085	175
649.289	163
649.494	174
649.698	175
649.903	184
650.107	161
650.312	165
650.516	148
650.721	153
650.925	151
651.13	153
651.334	137
651.539	151
651.743	128
651.947	147
652.152	138
652.356	134
652.56	135
652.764	137
652.969	137
653.173	128
653.377	134
653.581	139
653.785	139
653.99	139
654.194	130
654.398	119
654.602	141
654.806	133
655.01	139
655.214	147
655.418	139
655.622	130
655.826	119
656.03	127
656.234	127
656.438	137
656.642	131
656.846	147
657.049	129
657.253	132
657.457	135
657.661	126
657.865	122
658.068	100
658.272	117
658.476	113
658.68	96
658.883	105
659.087	103
659.291	94
659.494	107
659.698	98
659.901	101
660.105	91
660.309	99
660.512	97
660.716	89
660.919	96
661.123	102
661.326	103
661.53	99
661.733	90
661.936	85
662.14	85
662.343	94
662.546	111
662.75	73
662.953	86
663.156	91
663.36	86
663.563	85
663.766	94
663.969	86
664.173	92
664.376	87
664.579	79
664.782	88
664.985	82
665.188	88
665.391	77
665.594	97
665.797	92
666	83
666.203	65
666.406	89
666.609	98
666.812	96
667.015	99
667.218	94
667.421	82
667.624	71
667.827	85
668.03	82
668.232	82
668.435	90
668.638	91
668.841	83
669.043	99
669.246	87
669.449	91
669.651	95
669.854	83
670.057	79
670.259	90
670.462	82
670.665	95
670.867	91
671.07	95
671.272	96
671.475	91
671.677	96
671.88	100
672.082	78
672.284	85
672.487	98
672.689	88
672.892	88
