Data from 1989.PennyLincolnUp.Lamp.En5.5.200Scan.071819.P2_HRD10591_17-26-27-974.txt Node
Date: Thu Jul 18 17:26:27 EDT 2019
User: cochatt
Spectrometer: HR+D1059
Trigger mode: 1
Integration Time (sec): 1.000000E-1
Scans to average: 1
Electric dark correction enabled: true
Nonlinearity correction enabled: false
Boxcar width: 0
XAxis mode: Wavelengths
Number of Pixels in Spectrum: 2048
>>>>>Begin Spectral Data<<<<<
223.165	-20.19
223.4	-20.19
223.635	-20.19
223.869	-22.19
224.104	-12.19
224.338	-31.19
224.573	-12.19
224.808	-14.19
225.042	-16.19
225.277	5.81
225.511	9.81
225.746	-3.19
225.98	0.81
226.215	16.81
226.449	17.81
226.683	24.81
226.918	20.81
227.152	34.81
227.387	38.81
227.621	52.81
227.856	57.81
228.09	51.81
228.324	51.81
228.559	56.81
228.793	58.81
229.027	102.81
229.262	112.81
229.496	123.81
229.73	130.81
229.964	147.81
230.199	139.81
230.433	109.81
230.667	113.81
230.901	122.81
231.136	125.81
231.37	125.81
231.604	111.81
231.838	112.81
232.072	105.81
232.306	127.81
232.541	108.81
232.775	120.81
233.009	113.81
233.243	111.81
233.477	119.81
233.711	120.81
233.945	122.81
234.179	125.81
234.413	119.81
234.647	129.81
234.881	108.81
235.115	113.81
235.349	119.81
235.583	131.81
235.817	118.81
236.051	128.81
236.285	129.81
236.519	140.81
236.753	144.81
236.987	153.81
237.221	182.81
237.455	241.81
237.689	211.81
237.922	138.81
238.156	129.81
238.39	142.81
238.624	138.81
238.858	124.81
239.091	137.81
239.325	129.81
239.559	132.81
239.793	123.81
240.027	129.81
240.26	159.81
240.494	175.81
240.728	169.81
240.961	161.81
241.195	150.81
241.429	134.81
241.662	140.81
241.896	133.81
242.13	133.81
242.363	139.81
242.597	138.81
242.83	156.81
243.064	139.81
243.298	135.81
243.531	142.81
243.765	163.81
243.998	160.81
244.232	145.81
244.465	168.81
244.699	150.81
244.932	148.81
245.166	156.81
245.399	163.81
245.633	151.81
245.866	177.81
246.099	153.81
246.333	159.81
246.566	170.81
246.8	149.81
247.033	155.81
247.266	164.81
247.5	181.81
247.733	184.81
247.966	199.81
248.2	191.81
248.433	179.81
248.666	194.81
248.899	209.81
249.133	211.81
249.366	232.81
249.599	220.81
249.832	197.81
250.066	210.81
250.299	202.81
250.532	200.81
250.765	251.81
250.998	265.81
251.231	259.81
251.465	240.81
251.698	235.81
251.931	221.81
252.164	208.81
252.397	218.81
252.63	203.81
252.863	231.81
253.096	249.81
253.329	236.81
253.562	270.81
253.795	247.81
254.028	240.81
254.261	247.81
254.494	241.81
254.727	282.81
254.96	305.81
255.193	311.81
255.426	283.81
255.659	260.81
255.892	271.81
256.124	302.81
256.357	301.81
256.59	303.81
256.823	265.81
257.056	266.81
257.289	258.81
257.521	234.81
257.754	237.81
257.987	225.81
258.22	216.81
258.452	231.81
258.685	234.81
258.918	221.81
259.151	229.81
259.383	251.81
259.616	257.81
259.849	256.81
260.081	273.81
260.314	276.81
260.547	281.81
260.779	284.81
261.012	275.81
261.244	275.81
261.477	263.81
261.71	232.81
261.942	259.81
262.175	280.81
262.407	285.81
262.64	239.81
262.872	227.81
263.105	215.81
263.337	255.81
263.57	231.81
263.802	239.81
264.035	241.81
264.267	245.81
264.499	223.81
264.732	242.81
264.964	230.81
265.197	241.81
265.429	217.81
265.661	246.81
265.894	234.81
266.126	240.81
266.358	228.81
266.591	256.81
266.823	236.81
267.055	239.81
267.287	253.81
267.52	246.81
267.752	248.81
267.984	243.81
268.216	267.81
268.448	256.81
268.681	260.81
268.913	279.81
269.145	296.81
269.377	306.81
269.609	315.81
269.841	296.81
270.073	305.81
270.306	314.81
270.538	354.81
270.77	350.81
271.002	344.81
271.234	320.81
271.466	332.81
271.698	354.81
271.93	337.81
272.162	357.81
272.394	353.81
272.626	349.81
272.858	321.81
273.09	337.81
273.322	320.81
273.553	279.81
273.785	295.81
274.017	277.81
274.249	295.81
274.481	279.81
274.713	296.81
274.945	307.81
275.176	315.81
275.408	295.81
275.64	298.81
275.872	292.81
276.104	285.81
276.335	286.81
276.567	299.81
276.799	299.81
277.031	329.81
277.262	359.81
277.494	359.81
277.726	343.81
277.957	329.81
278.189	322.81
278.421	307.81
278.652	300.81
278.884	284.81
279.115	297.81
279.347	290.81
279.579	314.81
279.81	286.81
280.042	298.81
280.273	303.81
280.505	294.81
280.736	287.81
280.968	299.81
281.199	314.81
281.431	289.81
281.662	317.81
281.894	300.81
282.125	312.81
282.356	313.81
282.588	349.81
282.819	341.81
283.051	329.81
283.282	284.81
283.513	300.81
283.745	290.81
283.976	304.81
284.207	321.81
284.439	300.81
284.67	309.81
284.901	288.81
285.132	312.81
285.364	305.81
285.595	307.81
285.826	307.81
286.057	303.81
286.288	288.81
286.52	317.81
286.751	307.81
286.982	298.81
287.213	311.81
287.444	335.81
287.675	322.81
287.906	315.81
288.138	324.81
288.369	325.81
288.6	319.81
288.831	323.81
289.062	325.81
289.293	324.81
289.524	312.81
289.755	316.81
289.986	323.81
290.217	322.81
290.448	317.81
290.679	294.81
290.91	303.81
291.141	297.81
291.371	321.81
291.602	327.81
291.833	323.81
292.064	317.81
292.295	315.81
292.526	313.81
292.757	307.81
292.987	317.81
293.218	317.81
293.449	319.81
293.68	328.81
293.91	307.81
294.141	299.81
294.372	318.81
294.603	301.81
294.833	315.81
295.064	319.81
295.295	312.81
295.525	307.81
295.756	319.81
295.987	334.81
296.217	343.81
296.448	345.81
296.679	336.81
296.909	305.81
297.14	336.81
297.37	309.81
297.601	314.81
297.831	335.81
298.062	329.81
298.292	324.81
298.523	329.81
298.753	316.81
298.984	314.81
299.214	337.81
299.445	326.81
299.675	318.81
299.905	327.81
300.136	328.81
300.366	311.81
300.597	341.81
300.827	343.81
301.057	344.81
301.288	354.81
301.518	366.81
301.748	337.81
301.979	353.81
302.209	369.81
302.439	357.81
302.669	355.81
302.9	352.81
303.13	347.81
303.36	342.81
303.59	355.81
303.82	372.81
304.051	377.81
304.281	357.81
304.511	357.81
304.741	368.81
304.971	362.81
305.201	352.81
305.431	359.81
305.661	364.81
305.891	363.81
306.121	363.81
306.352	360.81
306.582	362.81
306.812	356.81
307.042	349.81
307.272	374.81
307.502	361.81
307.731	367.81
307.961	355.81
308.191	362.81
308.421	358.81
308.651	363.81
308.881	376.81
309.111	367.81
309.341	363.81
309.571	375.81
309.8	392.81
310.03	395.81
310.26	415.81
310.49	399.81
310.72	422.81
310.949	420.81
311.179	426.81
311.409	431.81
311.639	437.81
311.868	412.81
312.098	407.81
312.328	419.81
312.557	439.81
312.787	435.81
313.017	433.81
313.246	418.81
313.476	403.81
313.706	415.81
313.935	431.81
314.165	436.81
314.394	434.81
314.624	426.81
314.853	437.81
315.083	412.81
315.312	401.81
315.542	408.81
315.771	404.81
316.001	418.81
316.23	401.81
316.46	408.81
316.689	422.81
316.919	399.81
317.148	417.81
317.377	433.81
317.607	419.81
317.836	426.81
318.065	412.81
318.295	412.81
318.524	436.81
318.753	405.81
318.983	405.81
319.212	398.81
319.441	403.81
319.67	412.81
319.9	425.81
320.129	412.81
320.358	436.81
320.587	412.81
320.816	446.81
321.046	444.81
321.275	437.81
321.504	443.81
321.733	443.81
321.962	427.81
322.191	474.81
322.42	475.81
322.649	484.81
322.878	488.81
323.108	503.81
323.337	547.81
323.566	583.81
323.795	616.81
324.024	658.81
324.253	817.81
324.482	1160.81
324.71	1791.81
324.939	2520.81
325.168	2186.81
325.397	1158.81
325.626	779.81
325.855	618.81
326.084	587.81
326.313	581.81
326.542	568.81
326.77	635.81
326.999	742.81
327.228	1047.81
327.457	1586.81
327.686	1917.81
327.914	1305.81
328.143	847.81
328.372	736.81
328.6	702.81
328.829	663.81
329.058	696.81
329.287	688.81
329.515	632.81
329.744	615.81
329.972	631.81
330.201	652.81
330.43	713.81
330.658	732.81
330.887	715.81
331.115	682.81
331.344	603.81
331.572	556.81
331.801	549.81
332.03	524.81
332.258	541.81
332.486	514.81
332.715	517.81
332.943	496.81
333.172	497.81
333.4	507.81
333.629	530.81
333.857	570.81
334.085	600.81
334.314	633.81
334.542	668.81
334.771	711.81
334.999	625.81
335.227	556.81
335.455	512.81
335.684	516.81
335.912	497.81
336.14	479.81
336.369	473.81
336.597	488.81
336.825	483.81
337.053	489.81
337.281	467.81
337.51	471.81
337.738	465.81
337.966	490.81
338.194	485.81
338.422	470.81
338.65	467.81
338.878	478.81
339.106	469.81
339.334	460.81
339.562	442.81
339.79	464.81
340.018	457.81
340.246	456.81
340.474	486.81
340.702	464.81
340.93	469.81
341.158	457.81
341.386	453.81
341.614	488.81
341.842	469.81
342.07	443.81
342.298	440.81
342.526	447.81
342.754	417.81
342.981	433.81
343.209	424.81
343.437	427.81
343.665	428.81
343.893	434.81
344.12	448.81
344.348	466.81
344.576	456.81
344.804	449.81
345.031	468.81
345.259	465.81
345.487	471.81
345.714	486.81
345.942	448.81
346.17	427.81
346.397	444.81
346.625	454.81
346.853	440.81
347.08	431.81
347.308	463.81
347.535	462.81
347.763	458.81
347.99	458.81
348.218	453.81
348.445	453.81
348.673	479.81
348.9	444.81
349.128	442.81
349.355	443.81
349.583	414.81
349.81	431.81
350.037	442.81
350.265	419.81
350.492	418.81
350.72	440.81
350.947	436.81
351.174	447.81
351.402	468.81
351.629	460.81
351.856	444.81
352.083	450.81
352.311	457.81
352.538	449.81
352.765	473.81
352.992	441.81
353.22	451.81
353.447	420.81
353.674	418.81
353.901	413.81
354.128	420.81
354.355	391.81
354.583	402.81
354.81	403.81
355.037	417.81
355.264	377.81
355.491	400.81
355.718	392.81
355.945	390.81
356.172	404.81
356.399	383.81
356.626	411.81
356.853	407.81
357.08	401.81
357.307	423.81
357.534	406.81
357.761	383.81
357.988	392.81
358.215	391.81
358.441	389.81
358.668	379.81
358.895	415.81
359.122	396.81
359.349	413.81
359.576	450.81
359.802	435.81
360.029	478.81
360.256	488.81
360.483	458.81
360.709	437.81
360.936	441.81
361.163	427.81
361.39	452.81
361.616	437.81
361.843	429.81
362.07	422.81
362.296	438.81
362.523	437.81
362.749	441.81
362.976	410.81
363.203	411.81
363.429	414.81
363.656	416.81
363.882	423.81
364.109	403.81
364.335	391.81
364.562	419.81
364.788	409.81
365.015	417.81
365.241	408.81
365.468	417.81
365.694	415.81
365.92	400.81
366.147	386.81
366.373	389.81
366.599	403.81
366.826	379.81
367.052	391.81
367.278	405.81
367.505	405.81
367.731	416.81
367.957	403.81
368.184	401.81
368.41	423.81
368.636	421.81
368.862	415.81
369.089	422.81
369.315	396.81
369.541	392.81
369.767	389.81
369.993	402.81
370.219	393.81
370.445	414.81
370.672	401.81
370.898	410.81
371.124	418.81
371.35	391.81
371.576	396.81
371.802	404.81
372.028	390.81
372.254	378.81
372.48	393.81
372.706	377.81
372.932	376.81
373.158	382.81
373.384	398.81
373.61	387.81
373.835	405.81
374.061	377.81
374.287	389.81
374.513	410.81
374.739	408.81
374.965	390.81
375.191	410.81
375.416	406.81
375.642	396.81
375.868	398.81
376.094	389.81
376.319	402.81
376.545	391.81
376.771	400.81
376.997	387.81
377.222	391.81
377.448	388.81
377.674	397.81
377.899	377.81
378.125	385.81
378.35	381.81
378.576	387.81
378.802	391.81
379.027	391.81
379.253	385.81
379.478	379.81
379.704	385.81
379.929	394.81
380.155	393.81
380.38	382.81
380.606	394.81
380.831	379.81
381.057	386.81
381.282	397.81
381.507	412.81
381.733	392.81
381.958	391.81
382.184	395.81
382.409	393.81
382.634	408.81
382.86	390.81
383.085	387.81
383.31	400.81
383.535	399.81
383.761	407.81
383.986	416.81
384.211	401.81
384.436	402.81
384.662	426.81
384.887	420.81
385.112	353.81
385.337	413.81
385.562	405.81
385.787	407.81
386.013	421.81
386.238	409.81
386.463	423.81
386.688	427.81
386.913	424.81
387.138	397.81
387.363	431.81
387.588	419.81
387.813	408.81
388.038	413.81
388.263	403.81
388.488	419.81
388.713	413.81
388.938	416.81
389.163	426.81
389.387	412.81
389.612	416.81
389.837	390.81
390.062	409.81
390.287	420.81
390.512	414.81
390.736	400.81
390.961	422.81
391.186	423.81
391.411	407.81
391.636	414.81
391.86	390.81
392.085	417.81
392.31	421.81
392.534	432.81
392.759	414.81
392.984	425.81
393.208	441.81
393.433	409.81
393.658	408.81
393.882	379.81
394.107	393.81
394.331	419.81
394.556	417.81
394.78	417.81
395.005	432.81
395.229	394.81
395.454	410.81
395.678	427.81
395.903	421.81
396.127	458.81
396.352	468.81
396.576	418.81
396.801	417.81
397.025	425.81
397.249	408.81
397.474	433.81
397.698	436.81
397.922	476.81
398.147	475.81
398.371	475.81
398.595	448.81
398.82	474.81
399.044	474.81
399.268	490.81
399.492	501.81
399.717	529.81
399.941	545.81
400.165	552.81
400.389	584.81
400.613	527.81
400.837	510.81
401.062	487.81
401.286	472.81
401.51	459.81
401.734	458.81
401.958	461.81
402.182	469.81
402.406	472.81
402.63	490.81
402.854	464.81
403.078	469.81
403.302	480.81
403.526	479.81
403.75	486.81
403.974	470.81
404.198	498.81
404.422	495.81
404.645	502.81
404.869	515.81
405.093	546.81
405.317	588.81
405.541	647.81
405.765	578.81
405.988	538.81
406.212	531.81
406.436	552.81
406.66	564.81
406.883	537.81
407.107	555.81
407.331	602.81
407.555	631.81
407.778	659.81
408.002	601.81
408.226	549.81
408.449	524.81
408.673	526.81
408.896	576.81
409.12	604.81
409.344	583.81
409.567	518.81
409.791	505.81
410.014	488.81
410.238	479.81
410.461	495.81
410.685	487.81
410.908	492.81
411.132	545.81
411.355	565.81
411.578	539.81
411.802	516.81
412.025	488.81
412.249	497.81
412.472	533.81
412.695	572.81
412.919	597.81
413.142	547.81
413.365	517.81
413.589	503.81
413.812	479.81
414.035	479.81
414.258	461.81
414.482	481.81
414.705	457.81
414.928	466.81
415.151	460.81
415.374	458.81
415.597	422.81
415.821	462.81
416.044	458.81
416.267	475.81
416.49	445.81
416.713	455.81
416.936	446.81
417.159	458.81
417.382	458.81
417.605	473.81
417.828	477.81
418.051	487.81
418.274	473.81
418.497	472.81
418.72	475.81
418.943	454.81
419.166	484.81
419.389	500.81
419.611	487.81
419.834	486.81
420.057	485.81
420.28	506.81
420.503	499.81
420.726	489.81
420.948	516.81
421.171	529.81
421.394	561.81
421.617	530.81
421.839	488.81
422.062	468.81
422.285	500.81
422.507	564.81
422.73	640.81
422.953	603.81
423.175	525.81
423.398	526.81
423.621	501.81
423.843	523.81
424.066	527.81
424.288	528.81
424.511	531.81
424.733	583.81
424.956	670.81
425.178	643.81
425.401	663.81
425.623	660.81
425.846	575.81
426.068	527.81
426.291	523.81
426.513	520.81
426.735	529.81
426.958	575.81
427.18	673.81
427.402	761.81
427.625	860.81
427.847	778.81
428.069	689.81
428.292	605.81
428.514	539.81
428.736	495.81
428.958	504.81
429.181	480.81
429.403	495.81
429.625	469.81
429.847	538.81
430.069	591.81
430.292	586.81
430.514	513.81
430.736	508.81
430.958	479.81
431.18	456.81
431.402	465.81
431.624	449.81
431.846	455.81
432.068	431.81
432.29	456.81
432.512	456.81
432.734	439.81
432.956	458.81
433.178	472.81
433.4	475.81
433.622	460.81
433.844	435.81
434.066	433.81
434.287	425.81
434.509	468.81
434.731	455.81
434.953	461.81
435.175	479.81
435.397	528.81
435.618	533.81
435.84	561.81
436.062	669.81
436.284	749.81
436.505	635.81
436.727	549.81
436.949	482.81
437.17	473.81
437.392	474.81
437.614	493.81
437.835	534.81
438.057	637.81
438.278	754.81
438.5	754.81
438.721	797.81
438.943	743.81
439.165	595.81
439.386	569.81
439.608	529.81
439.829	546.81
440.05	593.81
440.272	624.81
440.493	594.81
440.715	535.81
440.936	499.81
441.158	485.81
441.379	465.81
441.6	516.81
441.822	514.81
442.043	566.81
442.264	639.81
442.486	689.81
442.707	599.81
442.928	575.81
443.149	560.81
443.371	565.81
443.592	600.81
443.813	680.81
444.034	746.81
444.255	627.81
444.476	538.81
444.698	531.81
444.919	538.81
445.14	652.81
445.361	617.81
445.582	598.81
445.803	646.81
446.024	714.81
446.245	749.81
446.466	688.81
446.687	580.81
446.908	543.81
447.129	506.81
447.35	519.81
447.571	496.81
447.792	495.81
448.013	488.81
448.234	524.81
448.455	547.81
448.675	673.81
448.896	788.81
449.117	687.81
449.338	635.81
449.559	738.81
449.779	828.81
450	657.81
450.221	552.81
450.442	488.81
450.662	485.81
450.883	492.81
451.104	517.81
451.324	507.81
451.545	451.81
451.766	456.81
451.986	445.81
452.207	410.81
452.428	450.81
452.648	441.81
452.869	448.81
453.089	449.81
453.31	453.81
453.53	434.81
453.751	425.81
453.971	448.81
454.192	445.81
454.412	445.81
454.633	428.81
454.853	420.81
455.073	425.81
455.294	472.81
455.514	541.81
455.734	530.81
455.955	421.81
456.175	425.81
456.395	405.81
456.616	424.81
456.836	384.81
457.056	389.81
457.276	402.81
457.497	389.81
457.717	404.81
457.937	381.81
458.157	410.81
458.377	415.81
458.598	462.81
458.818	511.81
459.038	606.81
459.258	602.81
459.478	492.81
459.698	472.81
459.918	458.81
460.138	465.81
460.358	452.81
460.578	481.81
460.798	455.81
461.018	456.81
461.238	456.81
461.458	433.81
461.678	429.81
461.898	443.81
462.118	458.81
462.338	460.81
462.558	464.81
462.777	468.81
462.997	450.81
463.217	446.81
463.437	473.81
463.657	460.81
463.876	476.81
464.096	452.81
464.316	448.81
464.536	461.81
464.755	483.81
464.975	502.81
465.195	551.81
465.414	595.81
465.634	522.81
465.854	487.81
466.073	471.81
466.293	447.81
466.512	437.81
466.732	417.81
466.951	433.81
467.171	421.81
467.391	441.81
467.61	468.81
467.829	460.81
468.049	449.81
468.268	462.81
468.488	466.81
468.707	448.81
468.927	452.81
469.146	429.81
469.365	433.81
469.585	428.81
469.804	441.81
470.023	451.81
470.243	454.81
470.462	454.81
470.681	461.81
470.901	450.81
471.12	456.81
471.339	420.81
471.558	472.81
471.777	452.81
471.997	458.81
472.216	462.81
472.435	520.81
472.654	525.81
472.873	478.81
473.092	460.81
473.311	462.81
473.53	476.81
473.749	469.81
473.968	521.81
474.187	635.81
474.406	622.81
474.625	521.81
474.844	484.81
475.063	471.81
475.282	465.81
475.501	451.81
475.72	460.81
475.939	470.81
476.158	459.81
476.377	463.81
476.596	450.81
476.814	451.81
477.033	476.81
477.252	486.81
477.471	480.81
477.69	465.81
477.908	479.81
478.127	495.81
478.346	490.81
478.564	503.81
478.783	487.81
479.002	513.81
479.22	515.81
479.439	520.81
479.658	521.81
479.876	531.81
480.095	553.81
480.313	579.81
480.532	563.81
480.751	570.81
480.969	570.81
481.188	698.81
481.406	784.81
481.624	673.81
481.843	605.81
482.061	587.81
482.28	533.81
482.498	561.81
482.717	523.81
482.935	549.81
483.153	535.81
483.372	517.81
483.59	513.81
483.808	516.81
484.027	515.81
484.245	525.81
484.463	533.81
484.681	532.81
484.9	533.81
485.118	533.81
485.336	553.81
485.554	544.81
485.772	540.81
485.99	551.81
486.209	542.81
486.427	561.81
486.645	571.81
486.863	578.81
487.081	590.81
487.299	579.81
487.517	576.81
487.735	573.81
487.953	568.81
488.171	559.81
488.389	549.81
488.607	569.81
488.825	569.81
489.043	579.81
489.261	571.81
489.479	568.81
489.696	577.81
489.914	592.81
490.132	603.81
490.35	580.81
490.568	600.81
490.786	600.81
491.003	617.81
491.221	624.81
491.439	641.81
491.657	666.81
491.874	664.81
492.092	683.81
492.31	676.81
492.527	651.81
492.745	666.81
492.963	677.81
493.18	714.81
493.398	697.81
493.615	691.81
493.833	697.81
494.05	666.81
494.268	685.81
494.485	674.81
494.703	702.81
494.92	669.81
495.138	701.81
495.355	665.81
495.573	673.81
495.79	698.81
496.008	703.81
496.225	666.81
496.442	678.81
496.66	671.81
496.877	662.81
497.094	700.81
497.312	693.81
497.529	676.81
497.746	696.81
497.963	701.81
498.181	720.81
498.398	729.81
498.615	742.81
498.832	754.81
499.049	748.81
499.267	759.81
499.484	759.81
499.701	770.81
499.918	800.81
500.135	825.81
500.352	852.81
500.569	909.81
500.786	870.81
501.003	881.81
501.22	847.81
501.437	828.81
501.654	819.81
501.871	828.81
502.088	802.81
502.305	769.81
502.522	758.81
502.739	748.81
502.956	712.81
503.172	692.81
503.389	684.81
503.606	711.81
503.823	706.81
504.04	679.81
504.256	689.81
504.473	628.81
504.69	649.81
504.907	676.81
505.123	643.81
505.34	645.81
505.557	631.81
505.773	659.81
505.99	647.81
506.207	658.81
506.423	666.81
506.64	651.81
506.856	664.81
507.073	624.81
507.289	601.81
507.506	632.81
507.722	651.81
507.939	647.81
508.155	646.81
508.372	639.81
508.588	633.81
508.805	589.81
509.021	631.81
509.238	644.81
509.454	647.81
509.67	639.81
509.887	609.81
510.103	624.81
510.319	639.81
510.536	721.81
510.752	1238.81
510.968	1005.81
511.184	662.81
511.401	593.81
511.617	585.81
511.833	593.81
512.049	601.81
512.265	606.81
512.481	599.81
512.698	613.81
512.914	605.81
513.13	598.81
513.346	581.81
513.562	571.81
513.778	561.81
513.994	578.81
514.21	613.81
514.426	622.81
514.642	667.81
514.858	703.81
515.074	717.81
515.29	888.81
515.506	1283.81
515.721	1085.81
515.937	734.81
516.153	655.81
516.369	624.81
516.585	591.81
516.801	589.81
517.016	610.81
517.232	624.81
517.448	595.81
517.664	599.81
517.879	599.81
518.095	581.81
518.311	593.81
518.527	577.81
518.742	581.81
518.958	572.81
519.173	580.81
519.389	565.81
519.605	575.81
519.82	589.81
520.036	603.81
520.251	631.81
520.467	660.81
520.682	639.81
520.898	657.81
521.113	672.81
521.329	719.81
521.544	839.81
521.76	1049.81
521.975	1735.81
522.19	1701.81
522.406	913.81
522.621	683.81
522.836	594.81
523.052	605.81
523.267	586.81
523.482	526.81
523.698	543.81
523.913	550.81
524.128	545.81
524.343	541.81
524.559	506.81
524.774	505.81
524.989	501.81
525.204	525.81
525.419	528.81
525.634	486.81
525.849	479.81
526.064	485.81
526.28	506.81
526.495	475.81
526.71	462.81
526.925	456.81
527.14	452.81
527.355	482.81
527.57	467.81
527.785	451.81
527.999	452.81
528.214	473.81
528.429	489.81
528.644	480.81
528.859	433.81
529.074	469.81
529.289	503.81
529.503	579.81
529.718	572.81
529.933	522.81
530.148	494.81
530.363	473.81
530.577	479.81
530.792	472.81
531.007	452.81
531.221	480.81
531.436	457.81
531.651	443.81
531.865	457.81
532.08	439.81
532.295	458.81
532.509	456.81
532.724	450.81
532.938	458.81
533.153	439.81
533.367	424.81
533.582	459.81
533.796	457.81
534.011	432.81
534.225	429.81
534.44	428.81
534.654	440.81
534.868	441.81
535.083	453.81
535.297	429.81
535.511	430.81
535.726	487.81
535.94	460.81
536.154	446.81
536.369	433.81
536.583	445.81
536.797	424.81
537.011	454.81
537.225	429.81
537.44	405.81
537.654	433.81
537.868	417.81
538.082	437.81
538.296	417.81
538.51	423.81
538.724	440.81
538.938	435.81
539.153	419.81
539.367	448.81
539.581	431.81
539.795	423.81
540.009	435.81
540.222	419.81
540.436	427.81
540.65	436.81
540.864	446.81
541.078	448.81
541.292	442.81
541.506	430.81
541.72	445.81
541.934	429.81
542.147	426.81
542.361	436.81
542.575	395.81
542.789	419.81
543.002	425.81
543.216	438.81
543.43	411.81
543.644	436.81
543.857	419.81
544.071	422.81
544.285	424.81
544.498	427.81
544.712	435.81
544.925	422.81
545.139	416.81
545.352	438.81
545.566	408.81
545.779	419.81
545.993	399.81
546.206	445.81
546.42	429.81
546.633	405.81
546.847	409.81
547.06	403.81
547.274	401.81
547.487	397.81
547.7	400.81
547.914	387.81
548.127	401.81
548.34	390.81
548.554	399.81
548.767	415.81
548.98	398.81
549.193	407.81
549.407	393.81
549.62	397.81
549.833	394.81
550.046	394.81
550.259	379.81
550.473	393.81
550.686	391.81
550.899	404.81
551.112	393.81
551.325	396.81
551.538	393.81
551.751	393.81
551.964	374.81
552.177	386.81
552.39	382.81
552.603	394.81
552.816	394.81
553.029	395.81
553.242	398.81
553.455	409.81
553.667	421.81
553.88	412.81
554.093	418.81
554.306	422.81
554.519	397.81
554.732	421.81
554.944	407.81
555.157	388.81
555.37	378.81
555.583	377.81
555.795	384.81
556.008	379.81
556.221	365.81
556.433	360.81
556.646	360.81
556.859	379.81
557.071	369.81
557.284	365.81
557.496	371.81
557.709	363.81
557.921	373.81
558.134	362.81
558.346	358.81
558.559	372.81
558.771	351.81
558.984	360.81
559.196	367.81
559.409	350.81
559.621	361.81
559.833	341.81
560.046	356.81
560.258	354.81
560.47	353.81
560.683	340.81
560.895	346.81
561.107	367.81
561.32	351.81
561.532	356.81
561.744	351.81
561.956	341.81
562.168	349.81
562.381	349.81
562.593	356.81
562.805	345.81
563.017	359.81
563.229	362.81
563.441	328.81
563.653	354.81
563.865	354.81
564.077	361.81
564.289	362.81
564.501	363.81
564.713	375.81
564.925	359.81
565.137	382.81
565.349	373.81
565.561	367.81
565.773	381.81
565.985	392.81
566.197	374.81
566.408	386.81
566.62	399.81
566.832	393.81
567.044	393.81
567.255	426.81
567.467	412.81
567.679	402.81
567.891	415.81
568.102	424.81
568.314	405.81
568.526	413.81
568.737	388.81
568.949	375.81
569.161	363.81
569.372	355.81
569.584	350.81
569.795	349.81
570.007	371.81
570.218	409.81
570.43	402.81
570.641	379.81
570.853	329.81
571.064	340.81
571.276	340.81
571.487	343.81
571.698	331.81
571.91	344.81
572.121	343.81
572.333	337.81
572.544	329.81
572.755	329.81
572.966	318.81
573.178	304.81
573.389	337.81
573.6	316.81
573.811	340.81
574.023	315.81
574.234	293.81
574.445	314.81
574.656	298.81
574.867	316.81
575.078	298.81
575.289	303.81
575.501	307.81
575.712	293.81
575.923	332.81
576.134	301.81
576.345	293.81
576.556	291.81
576.767	313.81
576.978	292.81
577.188	303.81
577.399	287.81
577.61	309.81
577.821	329.81
578.032	313.81
578.243	337.81
578.454	564.81
578.665	418.81
578.875	313.81
579.086	289.81
579.297	297.81
579.508	295.81
579.718	295.81
579.929	288.81
580.14	288.81
580.35	304.81
580.561	293.81
580.772	297.81
580.982	284.81
581.193	277.81
581.403	288.81
581.614	277.81
581.825	288.81
582.035	281.81
582.246	270.81
582.456	279.81
582.667	281.81
582.877	272.81
583.087	297.81
583.298	268.81
583.508	289.81
583.719	288.81
583.929	288.81
584.139	270.81
584.35	270.81
584.56	289.81
584.77	293.81
584.981	282.81
585.191	282.81
585.401	271.81
585.611	283.81
585.821	273.81
586.032	277.81
586.242	280.81
586.452	252.81
586.662	268.81
586.872	281.81
587.082	263.81
587.292	281.81
587.502	285.81
587.713	242.81
587.923	285.81
588.133	274.81
588.343	280.81
588.553	267.81
588.762	279.81
588.972	262.81
589.182	291.81
589.392	270.81
589.602	256.81
589.812	263.81
590.022	282.81
590.232	273.81
590.441	263.81
590.651	269.81
590.861	264.81
591.071	273.81
591.281	257.81
591.49	263.81
591.7	273.81
591.91	275.81
592.119	284.81
592.329	282.81
592.539	301.81
592.748	290.81
592.958	269.81
593.167	272.81
593.377	277.81
593.587	285.81
593.796	277.81
594.006	285.81
594.215	277.81
594.424	279.81
594.634	283.81
594.843	276.81
595.053	272.81
595.262	285.81
595.472	279.81
595.681	269.81
595.89	257.81
596.1	259.81
596.309	266.81
596.518	267.81
596.727	248.81
596.937	258.81
597.146	249.81
597.355	251.81
597.564	256.81
597.774	243.81
597.983	259.81
598.192	247.81
598.401	229.81
598.61	248.81
598.819	261.81
599.028	243.81
599.237	251.81
599.446	239.81
599.655	245.81
599.864	237.81
600.073	236.81
600.282	234.81
600.491	242.81
600.7	241.81
600.909	231.81
601.118	252.81
601.327	259.81
601.536	257.81
601.745	244.81
601.953	247.81
602.162	221.81
602.371	233.81
602.58	230.81
602.789	237.81
602.997	240.81
603.206	235.81
603.415	227.81
603.623	235.81
603.832	242.81
604.041	241.81
604.249	222.81
604.458	215.81
604.666	209.81
604.875	234.81
605.084	222.81
605.292	227.81
605.501	227.81
605.709	235.81
605.918	217.81
606.126	223.81
606.334	227.81
606.543	220.81
606.751	236.81
606.96	226.81
607.168	222.81
607.376	230.81
607.585	245.81
607.793	247.81
608.001	225.81
608.21	212.81
608.418	212.81
608.626	227.81
608.834	220.81
609.043	231.81
609.251	232.81
609.459	216.81
609.667	222.81
609.875	227.81
610.083	230.81
610.291	221.81
610.499	205.81
610.707	230.81
610.916	201.81
611.124	227.81
611.332	242.81
611.54	214.81
611.748	220.81
611.955	220.81
612.163	234.81
612.371	215.81
612.579	223.81
612.787	201.81
612.995	223.81
613.203	218.81
613.411	220.81
613.618	206.81
613.826	226.81
614.034	219.81
614.242	230.81
614.449	208.81
614.657	217.81
614.865	225.81
615.072	230.81
615.28	235.81
615.488	224.81
615.695	205.81
615.903	204.81
616.111	212.81
616.318	205.81
616.526	214.81
616.733	220.81
616.941	232.81
617.148	222.81
617.356	227.81
617.563	216.81
617.771	215.81
617.978	203.81
618.185	218.81
618.393	209.81
618.6	220.81
618.807	202.81
619.015	223.81
619.222	209.81
619.429	207.81
619.637	203.81
619.844	214.81
620.051	205.81
620.258	202.81
620.466	222.81
620.673	188.81
620.88	204.81
621.087	203.81
621.294	213.81
621.501	199.81
621.708	210.81
621.915	211.81
622.122	217.81
622.329	207.81
622.536	208.81
622.743	212.81
622.95	196.81
623.157	198.81
623.364	201.81
623.571	202.81
623.778	211.81
623.985	208.81
624.192	208.81
624.399	194.81
624.606	212.81
624.812	193.81
625.019	203.81
625.226	211.81
625.433	201.81
625.639	215.81
625.846	187.81
626.053	179.81
626.259	217.81
626.466	208.81
626.673	200.81
626.879	186.81
627.086	182.81
627.293	196.81
627.499	204.81
627.706	209.81
627.912	199.81
628.119	200.81
628.325	198.81
628.532	190.81
628.738	179.81
628.945	179.81
629.151	185.81
629.357	187.81
629.564	163.81
629.77	196.81
629.976	184.81
630.183	188.81
630.389	181.81
630.595	182.81
630.802	175.81
631.008	197.81
631.214	175.81
631.42	180.81
631.627	196.81
631.833	188.81
632.039	177.81
632.245	188.81
632.451	191.81
632.657	177.81
632.863	158.81
633.069	194.81
633.275	156.81
633.481	151.81
633.688	164.81
633.893	165.81
634.099	180.81
634.305	183.81
634.511	177.81
634.717	175.81
634.923	177.81
635.129	173.81
635.335	179.81
635.541	164.81
635.747	177.81
635.952	159.81
636.158	164.81
636.364	190.81
636.57	191.81
636.775	186.81
636.981	164.81
637.187	183.81
637.392	175.81
637.598	188.81
637.804	170.81
638.009	164.81
638.215	163.81
638.421	180.81
638.626	167.81
638.832	183.81
639.037	169.81
639.243	156.81
639.448	171.81
639.654	189.81
639.859	169.81
640.065	163.81
640.27	170.81
640.475	148.81
640.681	169.81
640.886	166.81
641.091	164.81
641.297	160.81
641.502	163.81
641.707	166.81
641.913	164.81
642.118	169.81
642.323	149.81
642.528	160.81
642.733	149.81
642.939	156.81
643.144	161.81
643.349	172.81
643.554	158.81
643.759	147.81
643.964	167.81
644.169	171.81
644.374	164.81
644.579	149.81
644.784	151.81
644.989	141.81
645.194	148.81
645.399	144.81
645.604	165.81
645.809	157.81
646.014	141.81
646.219	159.81
646.423	167.81
646.628	161.81
646.833	153.81
647.038	154.81
647.243	158.81
647.447	151.81
647.652	147.81
647.857	164.81
648.062	159.81
648.266	168.81
648.471	153.81
648.676	162.81
648.88	170.81
649.085	147.81
649.289	160.81
649.494	169.81
649.698	183.81
649.903	201.81
650.107	168.81
650.312	163.81
650.516	159.81
650.721	158.81
650.925	142.81
651.13	141.81
651.334	145.81
651.539	143.81
651.743	139.81
651.947	155.81
652.152	141.81
652.356	147.81
652.56	135.81
652.764	132.81
652.969	138.81
653.173	121.81
653.377	137.81
653.581	138.81
653.785	139.81
653.99	137.81
654.194	127.81
654.398	129.81
654.602	132.81
654.806	132.81
655.01	142.81
655.214	136.81
655.418	120.81
655.622	141.81
655.826	120.81
656.03	119.81
656.234	127.81
656.438	142.81
656.642	117.81
656.846	111.81
657.049	140.81
657.253	142.81
657.457	132.81
657.661	121.81
657.865	119.81
658.068	96.81
658.272	106.81
658.476	122.81
658.68	93.81
658.883	99.81
659.087	92.81
659.291	105.81
659.494	81.81
659.698	95.81
659.901	96.81
660.105	88.81
660.309	72.81
660.512	93.81
660.716	98.81
660.919	90.81
661.123	92.81
661.326	91.81
661.53	68.81
661.733	76.81
661.936	84.81
662.14	97.81
662.343	80.81
662.546	77.81
662.75	85.81
662.953	87.81
663.156	75.81
663.36	89.81
663.563	80.81
663.766	81.81
663.969	76.81
664.173	88.81
664.376	90.81
664.579	86.81
664.782	91.81
664.985	75.81
665.188	91.81
665.391	76.81
665.594	90.81
665.797	80.81
666	70.81
666.203	89.81
666.406	82.81
666.609	87.81
666.812	87.81
667.015	87.81
667.218	80.81
667.421	82.81
667.624	79.81
667.827	65.81
668.03	85.81
668.232	93.81
668.435	76.81
668.638	66.81
668.841	83.81
669.043	103.81
669.246	95.81
669.449	73.81
669.651	79.81
669.854	76.81
670.057	75.81
670.259	75.81
670.462	72.81
670.665	83.81
670.867	77.81
671.07	82.81
671.272	83.81
671.475	86.81
671.677	94.81
671.88	79.81
672.082	85.81
672.284	79.81
672.487	85.81
672.689	84.81
672.892	87.81
