Data from 1989.PennyLincolnUp.Lamp.En5.5.200Scan.071819.P2_HRD10591_17-24-51-973.txt Node
Date: Thu Jul 18 17:24:51 EDT 2019
User: cochatt
Spectrometer: HR+D1059
Trigger mode: 1
Integration Time (sec): 1.000000E-1
Scans to average: 1
Electric dark correction enabled: true
Nonlinearity correction enabled: false
Boxcar width: 0
XAxis mode: Wavelengths
Number of Pixels in Spectrum: 2048
>>>>>Begin Spectral Data<<<<<
223.165	-26.19
223.4	-26.19
223.635	-26.19
223.869	-3.19
224.104	-11.19
224.338	-7.19
224.573	-12.19
224.808	-14.19
225.042	-5.19
225.277	-4.19
225.511	-8.19
225.746	-5.19
225.98	4.81
226.215	2.81
226.449	21.81
226.683	20.81
226.918	17.81
227.152	28.81
227.387	26.81
227.621	46.81
227.856	53.81
228.09	42.81
228.324	50.81
228.559	54.81
228.793	60.81
229.027	103.81
229.262	103.81
229.496	117.81
229.73	137.81
229.964	166.81
230.199	126.81
230.433	125.81
230.667	119.81
230.901	131.81
231.136	118.81
231.37	119.81
231.604	122.81
231.838	115.81
232.072	117.81
232.306	106.81
232.541	104.81
232.775	120.81
233.009	117.81
233.243	120.81
233.477	117.81
233.711	142.81
233.945	124.81
234.179	109.81
234.413	123.81
234.647	117.81
234.881	112.81
235.115	122.81
235.349	134.81
235.583	124.81
235.817	126.81
236.051	140.81
236.285	130.81
236.519	150.81
236.753	139.81
236.987	150.81
237.221	199.81
237.455	254.81
237.689	209.81
237.922	154.81
238.156	146.81
238.39	127.81
238.624	134.81
238.858	136.81
239.091	127.81
239.325	144.81
239.559	132.81
239.793	149.81
240.027	145.81
240.26	151.81
240.494	165.81
240.728	166.81
240.961	156.81
241.195	155.81
241.429	147.81
241.662	141.81
241.896	137.81
242.13	137.81
242.363	141.81
242.597	141.81
242.83	126.81
243.064	143.81
243.298	150.81
243.531	143.81
243.765	150.81
243.998	142.81
244.232	142.81
244.465	145.81
244.699	141.81
244.932	147.81
245.166	163.81
245.399	158.81
245.633	144.81
245.866	161.81
246.099	172.81
246.333	145.81
246.566	162.81
246.8	164.81
247.033	168.81
247.266	165.81
247.5	182.81
247.733	189.81
247.966	187.81
248.2	186.81
248.433	177.81
248.666	190.81
248.899	200.81
249.133	218.81
249.366	228.81
249.599	221.81
249.832	214.81
250.066	190.81
250.299	188.81
250.532	200.81
250.765	209.81
250.998	231.81
251.231	261.81
251.465	244.81
251.698	239.81
251.931	215.81
252.164	214.81
252.397	230.81
252.63	225.81
252.863	240.81
253.096	254.81
253.329	229.81
253.562	254.81
253.795	240.81
254.028	245.81
254.261	260.81
254.494	259.81
254.727	287.81
254.96	301.81
255.193	300.81
255.426	272.81
255.659	258.81
255.892	237.81
256.124	246.81
256.357	251.81
256.59	250.81
256.823	238.81
257.056	227.81
257.289	240.81
257.521	230.81
257.754	230.81
257.987	241.81
258.22	228.81
258.452	246.81
258.685	240.81
258.918	238.81
259.151	233.81
259.383	247.81
259.616	256.81
259.849	243.81
260.081	269.81
260.314	268.81
260.547	297.81
260.779	276.81
261.012	260.81
261.244	276.81
261.477	259.81
261.71	242.81
261.942	255.81
262.175	264.81
262.407	244.81
262.64	260.81
262.872	227.81
263.105	236.81
263.337	231.81
263.57	242.81
263.802	231.81
264.035	231.81
264.267	233.81
264.499	233.81
264.732	231.81
264.964	224.81
265.197	238.81
265.429	227.81
265.661	236.81
265.894	239.81
266.126	225.81
266.358	233.81
266.591	247.81
266.823	231.81
267.055	245.81
267.287	260.81
267.52	251.81
267.752	263.81
267.984	268.81
268.216	238.81
268.448	256.81
268.681	256.81
268.913	263.81
269.145	284.81
269.377	302.81
269.609	301.81
269.841	303.81
270.073	290.81
270.306	332.81
270.538	341.81
270.77	344.81
271.002	349.81
271.234	318.81
271.466	344.81
271.698	373.81
271.93	350.81
272.162	349.81
272.394	356.81
272.626	347.81
272.858	334.81
273.09	325.81
273.322	315.81
273.553	275.81
273.785	286.81
274.017	288.81
274.249	291.81
274.481	286.81
274.713	290.81
274.945	298.81
275.176	301.81
275.408	299.81
275.64	308.81
275.872	280.81
276.104	289.81
276.335	290.81
276.567	298.81
276.799	318.81
277.031	343.81
277.262	365.81
277.494	363.81
277.726	339.81
277.957	342.81
278.189	303.81
278.421	276.81
278.652	289.81
278.884	287.81
279.115	292.81
279.347	293.81
279.579	303.81
279.81	292.81
280.042	292.81
280.273	294.81
280.505	299.81
280.736	280.81
280.968	283.81
281.199	290.81
281.431	293.81
281.662	282.81
281.894	299.81
282.125	310.81
282.356	319.81
282.588	354.81
282.819	348.81
283.051	303.81
283.282	306.81
283.513	298.81
283.745	287.81
283.976	314.81
284.207	324.81
284.439	299.81
284.67	329.81
284.901	301.81
285.132	290.81
285.364	307.81
285.595	297.81
285.826	295.81
286.057	302.81
286.288	290.81
286.52	300.81
286.751	309.81
286.982	318.81
287.213	308.81
287.444	320.81
287.675	300.81
287.906	322.81
288.138	318.81
288.369	319.81
288.6	308.81
288.831	330.81
289.062	324.81
289.293	307.81
289.524	311.81
289.755	314.81
289.986	315.81
290.217	319.81
290.448	300.81
290.679	310.81
290.91	316.81
291.141	310.81
291.371	310.81
291.602	297.81
291.833	318.81
292.064	298.81
292.295	309.81
292.526	332.81
292.757	313.81
292.987	308.81
293.218	292.81
293.449	314.81
293.68	295.81
293.91	308.81
294.141	318.81
294.372	312.81
294.603	314.81
294.833	293.81
295.064	314.81
295.295	295.81
295.525	307.81
295.756	333.81
295.987	326.81
296.217	351.81
296.448	353.81
296.679	336.81
296.909	288.81
297.14	322.81
297.37	322.81
297.601	313.81
297.831	316.81
298.062	325.81
298.292	335.81
298.523	329.81
298.753	312.81
298.984	326.81
299.214	318.81
299.445	350.81
299.675	331.81
299.905	317.81
300.136	321.81
300.366	332.81
300.597	340.81
300.827	332.81
301.057	327.81
301.288	331.81
301.518	323.81
301.748	332.81
301.979	340.81
302.209	356.81
302.439	355.81
302.669	355.81
302.9	358.81
303.13	351.81
303.36	350.81
303.59	360.81
303.82	370.81
304.051	370.81
304.281	345.81
304.511	332.81
304.741	358.81
304.971	341.81
305.201	364.81
305.431	345.81
305.661	350.81
305.891	357.81
306.121	335.81
306.352	338.81
306.582	362.81
306.812	357.81
307.042	365.81
307.272	347.81
307.502	367.81
307.731	340.81
307.961	366.81
308.191	362.81
308.421	350.81
308.651	375.81
308.881	343.81
309.111	355.81
309.341	372.81
309.571	380.81
309.8	400.81
310.03	394.81
310.26	422.81
310.49	411.81
310.72	416.81
310.949	421.81
311.179	431.81
311.409	412.81
311.639	412.81
311.868	404.81
312.098	399.81
312.328	411.81
312.557	431.81
312.787	438.81
313.017	451.81
313.246	420.81
313.476	404.81
313.706	405.81
313.935	423.81
314.165	430.81
314.394	416.81
314.624	432.81
314.853	437.81
315.083	400.81
315.312	389.81
315.542	394.81
315.771	401.81
316.001	388.81
316.23	398.81
316.46	389.81
316.689	382.81
316.919	406.81
317.148	409.81
317.377	412.81
317.607	421.81
317.836	398.81
318.065	409.81
318.295	405.81
318.524	406.81
318.753	408.81
318.983	412.81
319.212	418.81
319.441	423.81
319.67	424.81
319.9	408.81
320.129	410.81
320.358	415.81
320.587	417.81
320.816	414.81
321.046	427.81
321.275	450.81
321.504	442.81
321.733	441.81
321.962	422.81
322.191	468.81
322.42	462.81
322.649	495.81
322.878	480.81
323.108	524.81
323.337	520.81
323.566	566.81
323.795	598.81
324.024	650.81
324.253	809.81
324.482	1140.81
324.71	1746.81
324.939	2594.81
325.168	2211.81
325.397	1150.81
325.626	758.81
325.855	639.81
326.084	585.81
326.313	555.81
326.542	567.81
326.77	619.81
326.999	726.81
327.228	1022.81
327.457	1538.81
327.686	1906.81
327.914	1267.81
328.143	826.81
328.372	706.81
328.6	667.81
328.829	624.81
329.058	632.81
329.287	663.81
329.515	598.81
329.744	550.81
329.972	560.81
330.201	564.81
330.43	598.81
330.658	658.81
330.887	647.81
331.115	657.81
331.344	570.81
331.572	536.81
331.801	529.81
332.03	514.81
332.258	503.81
332.486	501.81
332.715	488.81
332.943	481.81
333.172	458.81
333.4	490.81
333.629	489.81
333.857	485.81
334.085	488.81
334.314	499.81
334.542	518.81
334.771	523.81
334.999	519.81
335.227	506.81
335.455	470.81
335.684	475.81
335.912	464.81
336.14	451.81
336.369	439.81
336.597	468.81
336.825	490.81
337.053	491.81
337.281	455.81
337.51	460.81
337.738	460.81
337.966	463.81
338.194	462.81
338.422	445.81
338.65	448.81
338.878	441.81
339.106	450.81
339.334	456.81
339.562	438.81
339.79	444.81
340.018	450.81
340.246	454.81
340.474	458.81
340.702	445.81
340.93	440.81
341.158	436.81
341.386	438.81
341.614	440.81
341.842	445.81
342.07	463.81
342.298	444.81
342.526	440.81
342.754	427.81
342.981	430.81
343.209	436.81
343.437	438.81
343.665	439.81
343.893	430.81
344.12	458.81
344.348	428.81
344.576	439.81
344.804	487.81
345.031	480.81
345.259	491.81
345.487	454.81
345.714	444.81
345.942	436.81
346.17	437.81
346.397	444.81
346.625	440.81
346.853	412.81
347.08	414.81
347.308	454.81
347.535	440.81
347.763	434.81
347.99	434.81
348.218	447.81
348.445	457.81
348.673	456.81
348.9	463.81
349.128	450.81
349.355	424.81
349.583	425.81
349.81	421.81
350.037	417.81
350.265	421.81
350.492	421.81
350.72	403.81
350.947	422.81
351.174	438.81
351.402	435.81
351.629	432.81
351.856	447.81
352.083	439.81
352.311	462.81
352.538	460.81
352.765	438.81
352.992	443.81
353.22	440.81
353.447	400.81
353.674	425.81
353.901	410.81
354.128	409.81
354.355	398.81
354.583	398.81
354.81	389.81
355.037	403.81
355.264	401.81
355.491	393.81
355.718	400.81
355.945	378.81
356.172	381.81
356.399	393.81
356.626	371.81
356.853	414.81
357.08	393.81
357.307	367.81
357.534	400.81
357.761	390.81
357.988	400.81
358.215	378.81
358.441	401.81
358.668	379.81
358.895	403.81
359.122	393.81
359.349	414.81
359.576	420.81
359.802	449.81
360.029	489.81
360.256	482.81
360.483	470.81
360.709	449.81
360.936	424.81
361.163	409.81
361.39	438.81
361.616	422.81
361.843	420.81
362.07	445.81
362.296	430.81
362.523	429.81
362.749	434.81
362.976	423.81
363.203	422.81
363.429	397.81
363.656	397.81
363.882	412.81
364.109	402.81
364.335	413.81
364.562	380.81
364.788	396.81
365.015	410.81
365.241	388.81
365.468	428.81
365.694	411.81
365.92	409.81
366.147	390.81
366.373	410.81
366.599	408.81
366.826	399.81
367.052	404.81
367.278	394.81
367.505	390.81
367.731	400.81
367.957	406.81
368.184	391.81
368.41	403.81
368.636	424.81
368.862	425.81
369.089	416.81
369.315	408.81
369.541	400.81
369.767	386.81
369.993	414.81
370.219	402.81
370.445	380.81
370.672	397.81
370.898	394.81
371.124	386.81
371.35	383.81
371.576	368.81
371.802	392.81
372.028	374.81
372.254	405.81
372.48	413.81
372.706	402.81
372.932	392.81
373.158	374.81
373.384	386.81
373.61	383.81
373.835	400.81
374.061	389.81
374.287	399.81
374.513	423.81
374.739	410.81
374.965	412.81
375.191	396.81
375.416	391.81
375.642	394.81
375.868	390.81
376.094	397.81
376.319	401.81
376.545	402.81
376.771	374.81
376.997	396.81
377.222	404.81
377.448	394.81
377.674	381.81
377.899	374.81
378.125	375.81
378.35	373.81
378.576	390.81
378.802	382.81
379.027	381.81
379.253	376.81
379.478	387.81
379.704	393.81
379.929	390.81
380.155	375.81
380.38	366.81
380.606	398.81
380.831	395.81
381.057	398.81
381.282	383.81
381.507	388.81
381.733	397.81
381.958	377.81
382.184	392.81
382.409	403.81
382.634	395.81
382.86	401.81
383.085	409.81
383.31	390.81
383.535	402.81
383.761	390.81
383.986	400.81
384.211	408.81
384.436	406.81
384.662	405.81
384.887	400.81
385.112	397.81
385.337	425.81
385.562	418.81
385.787	420.81
386.013	415.81
386.238	405.81
386.463	418.81
386.688	415.81
386.913	395.81
387.138	398.81
387.363	400.81
387.588	399.81
387.813	401.81
388.038	410.81
388.263	409.81
388.488	397.81
388.713	434.81
388.938	422.81
389.163	396.81
389.387	424.81
389.612	410.81
389.837	398.81
390.062	415.81
390.287	419.81
390.512	406.81
390.736	402.81
390.961	398.81
391.186	400.81
391.411	411.81
391.636	427.81
391.86	407.81
392.085	428.81
392.31	430.81
392.534	429.81
392.759	419.81
392.984	424.81
393.208	408.81
393.433	399.81
393.658	391.81
393.882	396.81
394.107	404.81
394.331	406.81
394.556	410.81
394.78	398.81
395.005	420.81
395.229	428.81
395.454	418.81
395.678	438.81
395.903	446.81
396.127	446.81
396.352	439.81
396.576	429.81
396.801	423.81
397.025	411.81
397.249	424.81
397.474	438.81
397.698	446.81
397.922	452.81
398.147	454.81
398.371	468.81
398.595	437.81
398.82	446.81
399.044	470.81
399.268	485.81
399.492	505.81
399.717	519.81
399.941	527.81
400.165	559.81
400.389	574.81
400.613	544.81
400.837	504.81
401.062	453.81
401.286	462.81
401.51	482.81
401.734	456.81
401.958	452.81
402.182	440.81
402.406	485.81
402.63	485.81
402.854	477.81
403.078	454.81
403.302	462.81
403.526	463.81
403.75	472.81
403.974	467.81
404.198	467.81
404.422	490.81
404.645	468.81
404.869	476.81
405.093	495.81
405.317	524.81
405.541	589.81
405.765	530.81
405.988	521.81
406.212	505.81
406.436	525.81
406.66	564.81
406.883	531.81
407.107	522.81
407.331	588.81
407.555	669.81
407.778	654.81
408.002	595.81
408.226	557.81
408.449	527.81
408.673	555.81
408.896	562.81
409.12	600.81
409.344	557.81
409.567	519.81
409.791	498.81
410.014	479.81
410.238	470.81
410.461	466.81
410.685	474.81
410.908	490.81
411.132	539.81
411.355	569.81
411.578	565.81
411.802	514.81
412.025	464.81
412.249	487.81
412.472	485.81
412.695	519.81
412.919	507.81
413.142	493.81
413.365	477.81
413.589	443.81
413.812	436.81
414.035	462.81
414.258	446.81
414.482	451.81
414.705	422.81
414.928	450.81
415.151	435.81
415.374	430.81
415.597	426.81
415.821	453.81
416.044	450.81
416.267	473.81
416.49	440.81
416.713	446.81
416.936	466.81
417.159	472.81
417.382	449.81
417.605	444.81
417.828	461.81
418.051	467.81
418.274	464.81
418.497	456.81
418.72	444.81
418.943	446.81
419.166	464.81
419.389	492.81
419.611	494.81
419.834	467.81
420.057	479.81
420.28	496.81
420.503	462.81
420.726	461.81
420.948	467.81
421.171	532.81
421.394	567.81
421.617	526.81
421.839	492.81
422.062	460.81
422.285	491.81
422.507	548.81
422.73	628.81
422.953	630.81
423.175	522.81
423.398	491.81
423.621	502.81
423.843	516.81
424.066	551.81
424.288	522.81
424.511	543.81
424.733	577.81
424.956	656.81
425.178	666.81
425.401	657.81
425.623	676.81
425.846	564.81
426.068	542.81
426.291	503.81
426.513	515.81
426.735	534.81
426.958	597.81
427.18	658.81
427.402	786.81
427.625	870.81
427.847	788.81
428.069	655.81
428.292	562.81
428.514	535.81
428.736	504.81
428.958	522.81
429.181	492.81
429.403	483.81
429.625	482.81
429.847	529.81
430.069	587.81
430.292	606.81
430.514	503.81
430.736	488.81
430.958	499.81
431.18	470.81
431.402	436.81
431.624	456.81
431.846	442.81
432.068	437.81
432.29	420.81
432.512	442.81
432.734	444.81
432.956	450.81
433.178	453.81
433.4	489.81
433.622	457.81
433.844	461.81
434.066	443.81
434.287	442.81
434.509	464.81
434.731	440.81
434.953	443.81
435.175	461.81
435.397	507.81
435.618	518.81
435.84	551.81
436.062	654.81
436.284	728.81
436.505	605.81
436.727	548.81
436.949	489.81
437.17	510.81
437.392	489.81
437.614	490.81
437.835	554.81
438.057	630.81
438.278	733.81
438.5	742.81
438.721	774.81
438.943	765.81
439.165	592.81
439.386	532.81
439.608	550.81
439.829	522.81
440.05	578.81
440.272	596.81
440.493	576.81
440.715	543.81
440.936	494.81
441.158	490.81
441.379	514.81
441.6	510.81
441.822	515.81
442.043	570.81
442.264	631.81
442.486	660.81
442.707	578.81
442.928	552.81
443.149	559.81
443.371	548.81
443.592	598.81
443.813	696.81
444.034	757.81
444.255	637.81
444.476	573.81
444.698	529.81
444.919	536.81
445.14	618.81
445.361	590.81
445.582	562.81
445.803	638.81
446.024	757.81
446.245	736.81
446.466	687.81
446.687	572.81
446.908	528.81
447.129	512.81
447.35	498.81
447.571	488.81
447.792	481.81
448.013	480.81
448.234	516.81
448.455	574.81
448.675	666.81
448.896	782.81
449.117	690.81
449.338	672.81
449.559	720.81
449.779	820.81
450	666.81
450.221	551.81
450.442	494.81
450.662	486.81
450.883	488.81
451.104	517.81
451.324	483.81
451.545	463.81
451.766	436.81
451.986	428.81
452.207	431.81
452.428	435.81
452.648	431.81
452.869	434.81
453.089	423.81
453.31	466.81
453.53	442.81
453.751	442.81
453.971	445.81
454.192	474.81
454.412	436.81
454.633	425.81
454.853	432.81
455.073	418.81
455.294	451.81
455.514	528.81
455.734	520.81
455.955	431.81
456.175	414.81
456.395	425.81
456.616	401.81
456.836	393.81
457.056	399.81
457.276	392.81
457.497	389.81
457.717	409.81
457.937	416.81
458.157	403.81
458.377	423.81
458.598	461.81
458.818	497.81
459.038	600.81
459.258	617.81
459.478	515.81
459.698	460.81
459.918	427.81
460.138	446.81
460.358	434.81
460.578	443.81
460.798	446.81
461.018	449.81
461.238	425.81
461.458	445.81
461.678	451.81
461.898	461.81
462.118	437.81
462.338	418.81
462.558	454.81
462.777	456.81
462.997	459.81
463.217	469.81
463.437	478.81
463.657	469.81
463.876	441.81
464.096	464.81
464.316	470.81
464.536	452.81
464.755	476.81
464.975	510.81
465.195	535.81
465.414	616.81
465.634	532.81
465.854	477.81
466.073	477.81
466.293	441.81
466.512	438.81
466.732	427.81
466.951	424.81
467.171	450.81
467.391	441.81
467.61	454.81
467.829	459.81
468.049	422.81
468.268	445.81
468.488	414.81
468.707	421.81
468.927	414.81
469.146	405.81
469.365	438.81
469.585	429.81
469.804	420.81
470.023	448.81
470.243	438.81
470.462	451.81
470.681	464.81
470.901	450.81
471.12	427.81
471.339	431.81
471.558	444.81
471.777	430.81
471.997	411.81
472.216	428.81
472.435	452.81
472.654	452.81
472.873	445.81
473.092	441.81
473.311	445.81
473.53	446.81
473.749	445.81
473.968	495.81
474.187	607.81
474.406	630.81
474.625	504.81
474.844	455.81
475.063	451.81
475.282	429.81
475.501	464.81
475.72	458.81
475.939	439.81
476.158	442.81
476.377	449.81
476.596	459.81
476.814	471.81
477.033	468.81
477.252	458.81
477.471	481.81
477.69	471.81
477.908	479.81
478.127	467.81
478.346	485.81
478.564	490.81
478.783	458.81
479.002	487.81
479.22	488.81
479.439	483.81
479.658	495.81
479.876	512.81
480.095	534.81
480.313	554.81
480.532	552.81
480.751	563.81
480.969	529.81
481.188	563.81
481.406	572.81
481.624	553.81
481.843	536.81
482.061	518.81
482.28	509.81
482.498	523.81
482.717	508.81
482.935	530.81
483.153	524.81
483.372	488.81
483.59	518.81
483.808	528.81
484.027	508.81
484.245	528.81
484.463	519.81
484.681	514.81
484.9	530.81
485.118	513.81
485.336	523.81
485.554	533.81
485.772	527.81
485.99	513.81
486.209	533.81
486.427	550.81
486.645	534.81
486.863	562.81
487.081	573.81
487.299	575.81
487.517	566.81
487.735	538.81
487.953	540.81
488.171	572.81
488.389	553.81
488.607	569.81
488.825	556.81
489.043	564.81
489.261	545.81
489.479	551.81
489.696	558.81
489.914	575.81
490.132	575.81
490.35	590.81
490.568	595.81
490.786	601.81
491.003	606.81
491.221	596.81
491.439	622.81
491.657	656.81
491.874	634.81
492.092	624.81
492.31	638.81
492.527	630.81
492.745	652.81
492.963	658.81
493.18	637.81
493.398	635.81
493.615	638.81
493.833	663.81
494.05	653.81
494.268	674.81
494.485	656.81
494.703	638.81
494.92	657.81
495.138	661.81
495.355	649.81
495.573	668.81
495.79	645.81
496.008	672.81
496.225	654.81
496.442	659.81
496.66	663.81
496.877	665.81
497.094	651.81
497.312	700.81
497.529	679.81
497.746	702.81
497.963	704.81
498.181	697.81
498.398	716.81
498.615	720.81
498.832	726.81
499.049	726.81
499.267	761.81
499.484	762.81
499.701	784.81
499.918	782.81
500.135	842.81
500.352	827.81
500.569	877.81
500.786	848.81
501.003	862.81
501.22	828.81
501.437	820.81
501.654	818.81
501.871	832.81
502.088	812.81
502.305	767.81
502.522	723.81
502.739	727.81
502.956	711.81
503.172	680.81
503.389	657.81
503.606	698.81
503.823	683.81
504.04	668.81
504.256	653.81
504.473	656.81
504.69	667.81
504.907	645.81
505.123	660.81
505.34	666.81
505.557	646.81
505.773	647.81
505.99	638.81
506.207	653.81
506.423	648.81
506.64	610.81
506.856	630.81
507.073	630.81
507.289	648.81
507.506	610.81
507.722	617.81
507.939	648.81
508.155	634.81
508.372	615.81
508.588	616.81
508.805	602.81
509.021	621.81
509.238	623.81
509.454	633.81
509.67	606.81
509.887	594.81
510.103	623.81
510.319	612.81
510.536	755.81
510.752	1279.81
510.968	1056.81
511.184	663.81
511.401	591.81
511.617	610.81
511.833	577.81
512.049	562.81
512.265	582.81
512.481	553.81
512.698	559.81
512.914	559.81
513.13	563.81
513.346	574.81
513.562	578.81
513.778	587.81
513.994	577.81
514.21	606.81
514.426	619.81
514.642	675.81
514.858	715.81
515.074	726.81
515.29	926.81
515.506	1388.81
515.721	1139.81
515.937	756.81
516.153	667.81
516.369	662.81
516.585	609.81
516.801	597.81
517.016	608.81
517.232	597.81
517.448	588.81
517.664	574.81
517.879	594.81
518.095	585.81
518.311	593.81
518.527	574.81
518.742	579.81
518.958	580.81
519.173	576.81
519.389	587.81
519.605	568.81
519.82	601.81
520.036	597.81
520.251	644.81
520.467	662.81
520.682	658.81
520.898	666.81
521.113	700.81
521.329	715.81
521.544	824.81
521.76	1076.81
521.975	1875.81
522.19	1839.81
522.406	943.81
522.621	710.81
522.836	625.81
523.052	580.81
523.267	566.81
523.482	552.81
523.698	545.81
523.913	525.81
524.128	555.81
524.343	518.81
524.559	516.81
524.774	524.81
524.989	507.81
525.204	511.81
525.419	527.81
525.634	532.81
525.849	490.81
526.064	473.81
526.28	493.81
526.495	477.81
526.71	491.81
526.925	490.81
527.14	481.81
527.355	469.81
527.57	455.81
527.785	468.81
527.999	447.81
528.214	459.81
528.429	483.81
528.644	455.81
528.859	464.81
529.074	475.81
529.289	493.81
529.503	609.81
529.718	567.81
529.933	508.81
530.148	485.81
530.363	486.81
530.577	459.81
530.792	442.81
531.007	455.81
531.221	483.81
531.436	461.81
531.651	466.81
531.865	454.81
532.08	483.81
532.295	451.81
532.509	431.81
532.724	431.81
532.938	440.81
533.153	450.81
533.367	458.81
533.582	464.81
533.796	444.81
534.011	426.81
534.225	437.81
534.44	446.81
534.654	438.81
534.868	447.81
535.083	453.81
535.297	436.81
535.511	454.81
535.726	460.81
535.94	452.81
536.154	441.81
536.369	423.81
536.583	448.81
536.797	423.81
537.011	441.81
537.225	402.81
537.44	428.81
537.654	439.81
537.868	430.81
538.082	426.81
538.296	439.81
538.51	435.81
538.724	427.81
538.938	434.81
539.153	424.81
539.367	464.81
539.581	446.81
539.795	423.81
540.009	425.81
540.222	430.81
540.436	428.81
540.65	427.81
540.864	441.81
541.078	429.81
541.292	439.81
541.506	445.81
541.72	442.81
541.934	413.81
542.147	436.81
542.361	406.81
542.575	416.81
542.789	414.81
543.002	426.81
543.216	438.81
543.43	434.81
543.644	439.81
543.857	430.81
544.071	442.81
544.285	437.81
544.498	430.81
544.712	432.81
544.925	416.81
545.139	414.81
545.352	414.81
545.566	406.81
545.779	420.81
545.993	408.81
546.206	391.81
546.42	415.81
546.633	421.81
546.847	401.81
547.06	411.81
547.274	406.81
547.487	411.81
547.7	409.81
547.914	405.81
548.127	415.81
548.34	409.81
548.554	391.81
548.767	393.81
548.98	405.81
549.193	396.81
549.407	394.81
549.62	390.81
549.833	399.81
550.046	414.81
550.259	398.81
550.473	399.81
550.686	413.81
550.899	401.81
551.112	373.81
551.325	376.81
551.538	379.81
551.751	398.81
551.964	378.81
552.177	378.81
552.39	396.81
552.603	401.81
552.816	406.81
553.029	390.81
553.242	392.81
553.455	416.81
553.667	418.81
553.88	424.81
554.093	403.81
554.306	416.81
554.519	401.81
554.732	384.81
554.944	388.81
555.157	410.81
555.37	388.81
555.583	383.81
555.795	372.81
556.008	374.81
556.221	360.81
556.433	367.81
556.646	359.81
556.859	386.81
557.071	364.81
557.284	365.81
557.496	356.81
557.709	351.81
557.921	370.81
558.134	365.81
558.346	355.81
558.559	352.81
558.771	361.81
558.984	360.81
559.196	345.81
559.409	376.81
559.621	362.81
559.833	350.81
560.046	354.81
560.258	358.81
560.47	359.81
560.683	367.81
560.895	364.81
561.107	338.81
561.32	357.81
561.532	359.81
561.744	351.81
561.956	342.81
562.168	334.81
562.381	335.81
562.593	348.81
562.805	379.81
563.017	365.81
563.229	338.81
563.441	346.81
563.653	367.81
563.865	365.81
564.077	353.81
564.289	347.81
564.501	359.81
564.713	377.81
564.925	390.81
565.137	395.81
565.349	389.81
565.561	369.81
565.773	391.81
565.985	389.81
566.197	374.81
566.408	394.81
566.62	418.81
566.832	398.81
567.044	415.81
567.255	408.81
567.467	406.81
567.679	420.81
567.891	419.81
568.102	402.81
568.314	399.81
568.526	406.81
568.737	390.81
568.949	378.81
569.161	386.81
569.372	371.81
569.584	375.81
569.795	347.81
570.007	378.81
570.218	418.81
570.43	382.81
570.641	347.81
570.853	348.81
571.064	348.81
571.276	350.81
571.487	320.81
571.698	332.81
571.91	326.81
572.121	316.81
572.333	330.81
572.544	313.81
572.755	328.81
572.966	333.81
573.178	323.81
573.389	312.81
573.6	343.81
573.811	320.81
574.023	325.81
574.234	332.81
574.445	309.81
574.656	312.81
574.867	296.81
575.078	314.81
575.289	312.81
575.501	310.81
575.712	297.81
575.923	315.81
576.134	312.81
576.345	314.81
576.556	303.81
576.767	294.81
576.978	308.81
577.188	293.81
577.399	313.81
577.61	300.81
577.821	314.81
578.032	311.81
578.243	327.81
578.454	601.81
578.665	430.81
578.875	304.81
579.086	311.81
579.297	294.81
579.508	301.81
579.718	307.81
579.929	297.81
580.14	286.81
580.35	280.81
580.561	291.81
580.772	280.81
580.982	276.81
581.193	299.81
581.403	277.81
581.614	280.81
581.825	290.81
582.035	261.81
582.246	290.81
582.456	287.81
582.667	286.81
582.877	273.81
583.087	282.81
583.298	286.81
583.508	280.81
583.719	265.81
583.929	272.81
584.139	289.81
584.35	284.81
584.56	267.81
584.77	278.81
584.981	274.81
585.191	280.81
585.401	265.81
585.611	266.81
585.821	290.81
586.032	272.81
586.242	277.81
586.452	282.81
586.662	275.81
586.872	267.81
587.082	283.81
587.292	265.81
587.502	276.81
587.713	264.81
587.923	272.81
588.133	262.81
588.343	254.81
588.553	263.81
588.762	258.81
588.972	279.81
589.182	280.81
589.392	262.81
589.602	260.81
589.812	271.81
590.022	282.81
590.232	291.81
590.441	278.81
590.651	278.81
590.861	265.81
591.071	270.81
591.281	280.81
591.49	278.81
591.7	258.81
591.91	279.81
592.119	272.81
592.329	278.81
592.539	293.81
592.748	282.81
592.958	268.81
593.167	274.81
593.377	262.81
593.587	274.81
593.796	270.81
594.006	292.81
594.215	282.81
594.424	279.81
594.634	276.81
594.843	278.81
595.053	278.81
595.262	244.81
595.472	269.81
595.681	272.81
595.89	282.81
596.1	269.81
596.309	255.81
596.518	236.81
596.727	264.81
596.937	252.81
597.146	249.81
597.355	271.81
597.564	226.81
597.774	234.81
597.983	254.81
598.192	245.81
598.401	237.81
598.61	260.81
598.819	253.81
599.028	239.81
599.237	228.81
599.446	231.81
599.655	251.81
599.864	232.81
600.073	231.81
600.282	238.81
600.491	247.81
600.7	248.81
600.909	248.81
601.118	240.81
601.327	216.81
601.536	242.81
601.745	237.81
601.953	236.81
602.162	246.81
602.371	247.81
602.58	244.81
602.789	262.81
602.997	242.81
603.206	226.81
603.415	240.81
603.623	231.81
603.832	232.81
604.041	225.81
604.249	245.81
604.458	233.81
604.666	238.81
604.875	228.81
605.084	229.81
605.292	223.81
605.501	227.81
605.709	219.81
605.918	221.81
606.126	229.81
606.334	220.81
606.543	231.81
606.751	222.81
606.96	202.81
607.168	229.81
607.376	210.81
607.585	235.81
607.793	227.81
608.001	240.81
608.21	212.81
608.418	238.81
608.626	226.81
608.834	226.81
609.043	228.81
609.251	226.81
609.459	229.81
609.667	216.81
609.875	238.81
610.083	231.81
610.291	229.81
610.499	227.81
610.707	214.81
610.916	223.81
611.124	218.81
611.332	238.81
611.54	208.81
611.748	201.81
611.955	207.81
612.163	221.81
612.371	204.81
612.579	214.81
612.787	218.81
612.995	230.81
613.203	230.81
613.411	223.81
613.618	218.81
613.826	221.81
614.034	224.81
614.242	228.81
614.449	215.81
614.657	213.81
614.865	211.81
615.072	228.81
615.28	228.81
615.488	214.81
615.695	226.81
615.903	225.81
616.111	216.81
616.318	200.81
616.526	211.81
616.733	218.81
616.941	232.81
617.148	222.81
617.356	204.81
617.563	212.81
617.771	216.81
617.978	192.81
618.185	226.81
618.393	207.81
618.6	216.81
618.807	198.81
619.015	195.81
619.222	207.81
619.429	199.81
619.637	215.81
619.844	219.81
620.051	206.81
620.258	210.81
620.466	217.81
620.673	212.81
620.88	213.81
621.087	201.81
621.294	206.81
621.501	215.81
621.708	218.81
621.915	198.81
622.122	183.81
622.329	207.81
622.536	208.81
622.743	200.81
622.95	220.81
623.157	199.81
623.364	198.81
623.571	190.81
623.778	194.81
623.985	201.81
624.192	194.81
624.399	203.81
624.606	199.81
624.812	202.81
625.019	216.81
625.226	201.81
625.433	209.81
625.639	187.81
625.846	192.81
626.053	186.81
626.259	202.81
626.466	192.81
626.673	198.81
626.879	171.81
627.086	192.81
627.293	182.81
627.499	203.81
627.706	208.81
627.912	207.81
628.119	184.81
628.325	200.81
628.532	171.81
628.738	190.81
628.945	170.81
629.151	197.81
629.357	185.81
629.564	181.81
629.77	190.81
629.976	186.81
630.183	181.81
630.389	170.81
630.595	196.81
630.802	175.81
631.008	175.81
631.214	182.81
631.42	175.81
631.627	184.81
631.833	178.81
632.039	185.81
632.245	166.81
632.451	175.81
632.657	184.81
632.863	180.81
633.069	184.81
633.275	174.81
633.481	186.81
633.688	168.81
633.893	170.81
634.099	189.81
634.305	178.81
634.511	166.81
634.717	187.81
634.923	166.81
635.129	173.81
635.335	180.81
635.541	179.81
635.747	173.81
635.952	170.81
636.158	169.81
636.364	149.81
636.57	182.81
636.775	167.81
636.981	180.81
637.187	178.81
637.392	178.81
637.598	168.81
637.804	176.81
638.009	168.81
638.215	165.81
638.421	153.81
638.626	162.81
638.832	169.81
639.037	161.81
639.243	140.81
639.448	160.81
639.654	185.81
639.859	166.81
640.065	169.81
640.27	172.81
640.475	163.81
640.681	161.81
640.886	165.81
641.091	158.81
641.297	174.81
641.502	162.81
641.707	169.81
641.913	175.81
642.118	159.81
642.323	161.81
642.528	150.81
642.733	147.81
642.939	152.81
643.144	166.81
643.349	150.81
643.554	171.81
643.759	150.81
643.964	172.81
644.169	158.81
644.374	159.81
644.579	134.81
644.784	156.81
644.989	164.81
645.194	152.81
645.399	155.81
645.604	150.81
645.809	151.81
646.014	164.81
646.219	159.81
646.423	170.81
646.628	148.81
646.833	144.81
647.038	152.81
647.243	156.81
647.447	153.81
647.652	158.81
647.857	174.81
648.062	156.81
648.266	160.81
648.471	153.81
648.676	167.81
648.88	180.81
649.085	174.81
649.289	162.81
649.494	166.81
649.698	179.81
649.903	181.81
650.107	167.81
650.312	167.81
650.516	149.81
650.721	155.81
650.925	150.81
651.13	132.81
651.334	143.81
651.539	163.81
651.743	148.81
651.947	148.81
652.152	131.81
652.356	144.81
652.56	142.81
652.764	151.81
652.969	138.81
653.173	134.81
653.377	127.81
653.581	132.81
653.785	154.81
653.99	154.81
654.194	157.81
654.398	144.81
654.602	140.81
654.806	139.81
655.01	139.81
655.214	150.81
655.418	141.81
655.622	130.81
655.826	126.81
656.03	127.81
656.234	130.81
656.438	121.81
656.642	131.81
656.846	120.81
657.049	128.81
657.253	122.81
657.457	127.81
657.661	106.81
657.865	118.81
658.068	111.81
658.272	124.81
658.476	106.81
658.68	102.81
658.883	117.81
659.087	101.81
659.291	120.81
659.494	95.81
659.698	85.81
659.901	102.81
660.105	93.81
660.309	101.81
660.512	92.81
660.716	99.81
660.919	91.81
661.123	101.81
661.326	94.81
661.53	84.81
661.733	90.81
661.936	101.81
662.14	99.81
662.343	81.81
662.546	94.81
662.75	91.81
662.953	94.81
663.156	76.81
663.36	86.81
663.563	83.81
663.766	88.81
663.969	92.81
664.173	88.81
664.376	80.81
664.579	82.81
664.782	82.81
664.985	83.81
665.188	78.81
665.391	78.81
665.594	75.81
665.797	77.81
666	83.81
666.203	84.81
666.406	83.81
666.609	86.81
666.812	77.81
667.015	90.81
667.218	92.81
667.421	90.81
667.624	80.81
667.827	85.81
668.03	98.81
668.232	79.81
668.435	84.81
668.638	75.81
668.841	90.81
669.043	88.81
669.246	90.81
669.449	90.81
669.651	83.81
669.854	71.81
670.057	77.81
670.259	86.81
670.462	82.81
670.665	90.81
670.867	79.81
671.07	80.81
671.272	90.81
671.475	85.81
671.677	85.81
671.88	84.81
672.082	76.81
672.284	82.81
672.487	78.81
672.689	80.81
672.892	64.81
